 # applied field (T), theta (degree), phi (degree), abs [muB/unitcell], abs [T]
       0.00000000      90.00000000      45.42853158      36.36984844       1.26649865
       0.10000000      89.25879898      44.57146841      36.36981782       1.26649758
       0.20000000      88.46063319      44.57146839      36.36971578       1.26649403
       0.30000000      87.71942083      44.57146835      36.36955784       1.26648853
       0.40000000      86.97819757      44.57146830      36.36933896       1.26648091
       0.50000000      86.23695990      45.42853176      36.36905939       1.26647117
       0.60000000      85.43873845      45.42853185      36.36868902       1.26645827
       0.70000000      84.69745965      44.57146806      36.36828415       1.26644417
       0.80000000      83.95615574      44.57146796      36.36781973       1.26642800
       0.90000000      83.15785096      45.00000000      36.36725126       1.26640821
       1.00000000      82.41648395      45.00000000      36.36666457       1.26638778
       1.10000000      81.67508143      45.00000000      36.36602008       1.26636533
       1.20000000      80.87665861      45.00000000      36.36525866       1.26633882
       1.30000000      80.13517175      45.00000000      36.36449616       1.26631227
       1.40000000      79.33665026      44.56314597      36.36360855       1.26628136
       1.50000000      78.53807192      45.43685425      36.36265746       1.26624824
       1.60000000      77.79643068      45.43685446      36.36172256       1.26621568
       1.70000000      76.99773179      44.56314529      36.36065206       1.26617840
       1.80000000      76.19896500      45.00000000      36.35952170       1.26613904
       1.90000000      75.45713941      45.00000000      36.35842433       1.26610083
       2.00000000      74.65823122      45.44550613      36.35718157       1.26605755
       2.10000000      73.85924489      44.55449356      36.35588321       1.26601234
       2.20000000      73.06017698      44.55449323      36.35453052       1.26596524
       2.30000000      72.26102446      45.00000000      36.35312542       1.26591631
       2.40000000      71.40474034      45.00000000      36.35155647       1.26586167
       2.50000000      70.60540200      44.54549199      36.35004676       1.26580910
       2.60000000      69.80597002      44.54549160      36.34849003       1.26575489
       2.70000000      68.94937653      45.00000000      36.34676451       1.26569480
       2.80000000      68.14974149      45.00000000      36.34511535       1.26563737
       2.90000000      67.29292379      45.46388103      36.34329406       1.26557395
       3.00000000      66.43598638      45.00000000      36.34142751       1.26550895
       3.10000000      65.57892595      45.00000000      36.33951731       1.26544243
       3.20000000      64.72174001      44.52635155      36.33756597       1.26537448
       3.30000000      63.86442695      45.00000000      36.33557687       1.26530522
       3.40000000      62.94985915      45.00000000      36.33340673       1.26522965
       3.50000000      62.09227514      44.51616387      36.33134583       1.26515788
       3.60000000      61.17741429      45.00000000      36.32910535       1.26507986
       3.70000000      60.26239851      44.50552884      36.32683248       1.26500071
       3.80000000      59.34722719      45.00000000      36.32453144       1.26492058
       3.90000000      58.43189814      45.00000000      36.32220472       1.26483956
       4.00000000      57.45922499      44.49441505      36.31969827       1.26475228
       4.10000000      56.48637145      45.00000000      36.31717054       1.26466426
       4.20000000      55.51333561      44.48279088      36.31462445       1.26457560
       4.30000000      54.54011806      45.00000000      36.31206472       1.26448646
       4.40000000      53.56671747      44.47061964      36.30949427       1.26439695
       4.50000000      52.53589336      44.45786261      36.30675536       1.26430157
       4.60000000      51.50486461      45.00000000      36.30401324       1.26420608
       4.70000000      50.41636549      44.44447462      36.30110910       1.26410495
       4.80000000      49.32763983      45.00000000      36.29821090       1.26400403
       4.90000000      48.23868844      45.00000000      36.29532297       1.26390347
       5.00000000      47.09221035      45.58438699      36.29228899       1.26379781
       5.10000000      45.94548725      45.00000000      36.28927727       1.26369294
       5.20000000      44.79852156      45.00000000      36.28629260       1.26358900
       5.30000000      43.53663422      45.00000000      36.28302580       1.26347524
       5.40000000      42.33181643      44.36622329      36.27995890       1.26336845
       5.50000000      41.01200914      44.34785156      36.27663285       1.26325262
       5.60000000      39.69190256      45.67161697      36.27336889       1.26313896
       5.70000000      38.37150468      44.30771645      36.27017361       1.26302769
       5.80000000      36.93600753      45.71426240      36.26676526       1.26290901
       5.90000000      35.44276298      44.26231748      36.26331214       1.26278876
       6.00000000      33.89174304      44.23730952      36.25983396       1.26266764
       6.10000000      32.28292228      45.00000000      36.25635220       1.26254639
       6.20000000      30.61627726      45.00000000      36.25288967       1.26242582
       6.30000000      28.77683265      44.11766541      36.24923231       1.26229846
       6.40000000      26.87947531      45.00000000      36.24567095       1.26217444
       6.50000000      24.75167836      45.00000000      36.24192098       1.26204386
       6.60000000      22.50835830      45.00000000      36.23828062       1.26191709
       6.70000000      19.97688641      45.00000000      36.23455527       1.26178737
       6.80000000      17.04203763      43.54839818      36.23076245       1.26165529
       6.90000000      13.47339581      43.20000867      36.22693584       1.26152204
       7.00000000       8.52224746      45.00000000      36.22308749       1.26138803
       7.10000000       0.00000000       0.00000000      36.22060845       1.26130170
       7.20000000       0.00000000       0.00000000      36.22090265       1.26131194
       7.30000000       0.00000000       0.00000000      36.22119683       1.26132219
       7.40000000       0.00000000       0.00000000      36.22149099       1.26133243
       7.50000000       0.00000000       0.00000000      36.22178513       1.26134267
       7.60000000       0.00000000       0.00000000      36.22207925       1.26135292
       7.70000000       0.00000000       0.00000000      36.22237334       1.26136316
       7.80000000       0.00000000       0.00000000      36.22266741       1.26137340
       7.90000000       0.00000000       0.00000000      36.22296146       1.26138364
       8.00000000       0.00000000       0.00000000      36.22325548       1.26139388
       8.10000000       0.00000000       0.00000000      36.22354949       1.26140411
       8.20000000       0.00000000       0.00000000      36.22384347       1.26141435
       8.30000000       0.00000000       0.00000000      36.22413743       1.26142459
       8.40000000       0.00000000       0.00000000      36.22443137       1.26143482
       8.50000000       0.00000000       0.00000000      36.22472529       1.26144506
       8.60000000       0.00000000       0.00000000      36.22501918       1.26145529
       8.70000000       0.00000000       0.00000000      36.22531305       1.26146553
       8.80000000       0.00000000       0.00000000      36.22560690       1.26147576
       8.90000000       0.00000000       0.00000000      36.22590073       1.26148599
       9.00000000       0.00000000       0.00000000      36.22619454       1.26149622
       9.10000000       0.00000000       0.00000000      36.22648832       1.26150645
       9.20000000       0.00000000       0.00000000      36.22678208       1.26151668
       9.30000000       0.00000000       0.00000000      36.22707582       1.26152691
       9.40000000       0.00000000       0.00000000      36.22736954       1.26153714
       9.50000000       0.00000000       0.00000000      36.22766324       1.26154737
       9.60000000       0.00000000       0.00000000      36.22795691       1.26155759
       9.70000000       0.00000000       0.00000000      36.22825057       1.26156782
       9.80000000       0.00000000       0.00000000      36.22854420       1.26157804
       9.90000000       0.00000000       0.00000000      36.22883780       1.26158827
      10.00000000       0.00000000       0.00000000      36.22913139       1.26159849
      10.10000000       0.00000000       0.00000000      36.22942495       1.26160871
      10.20000000       0.00000000       0.00000000      36.22971850       1.26161894
      10.30000000       0.00000000       0.00000000      36.23001202       1.26162916
      10.40000000       0.00000000       0.00000000      36.23030552       1.26163938
      10.50000000       0.00000000       0.00000000      36.23059899       1.26164960
      10.60000000       0.00000000       0.00000000      36.23089245       1.26165982
      10.70000000       0.00000000       0.00000000      36.23118588       1.26167003
      10.80000000       0.00000000       0.00000000      36.23147929       1.26168025
      10.90000000       0.00000000       0.00000000      36.23177268       1.26169047
      11.00000000       0.00000000       0.00000000      36.23206605       1.26170068
      11.10000000       0.00000000       0.00000000      36.23235939       1.26171090
      11.20000000       0.00000000       0.00000000      36.23265272       1.26172111
      11.30000000       0.00000000       0.00000000      36.23294602       1.26173133
      11.40000000       0.00000000       0.00000000      36.23323930       1.26174154
      11.50000000       0.00000000       0.00000000      36.23353256       1.26175175
      11.60000000       0.00000000       0.00000000      36.23382580       1.26176196
      11.70000000       0.00000000       0.00000000      36.23411901       1.26177217
      11.80000000       0.00000000       0.00000000      36.23441220       1.26178238
      11.90000000       0.00000000       0.00000000      36.23470537       1.26179259
      12.00000000       0.00000000       0.00000000      36.23499852       1.26180280
      12.10000000       0.00000000       0.00000000      36.23529165       1.26181301
      12.20000000       0.00000000       0.00000000      36.23558476       1.26182322
      12.30000000       0.00000000       0.00000000      36.23587784       1.26183342
      12.40000000       0.00000000       0.00000000      36.23617090       1.26184363
      12.50000000       0.00000000       0.00000000      36.23646394       1.26185383
      12.60000000       0.00000000       0.00000000      36.23675696       1.26186403
      12.70000000       0.00000000       0.00000000      36.23704996       1.26187424
      12.80000000       0.00000000       0.00000000      36.23734294       1.26188444
      12.90000000       0.00000000       0.00000000      36.23763589       1.26189464
      13.00000000       0.00000000       0.00000000      36.23792882       1.26190484
      13.10000000       0.00000000       0.00000000      36.23822173       1.26191504
      13.20000000       0.00000000       0.00000000      36.23851462       1.26192524
      13.30000000       0.00000000       0.00000000      36.23880749       1.26193544
      13.40000000       0.00000000       0.00000000      36.23910033       1.26194564
      13.50000000       0.00000000       0.00000000      36.23939316       1.26195583
      13.60000000       0.00000000       0.00000000      36.23968596       1.26196603
      13.70000000       0.00000000       0.00000000      36.23997874       1.26197623
      13.80000000       0.00000000       0.00000000      36.24027150       1.26198642
      13.90000000       0.00000000       0.00000000      36.24056424       1.26199661
      14.00000000       0.00000000       0.00000000      36.24085695       1.26200681
      14.10000000       0.00000000       0.00000000      36.24114965       1.26201700
      14.20000000       0.00000000       0.00000000      36.24144232       1.26202719
      14.30000000       0.00000000       0.00000000      36.24173497       1.26203738
      14.40000000       0.00000000       0.00000000      36.24202760       1.26204757
      14.50000000       0.00000000       0.00000000      36.24232021       1.26205776
      14.60000000       0.00000000       0.00000000      36.24261280       1.26206795
      14.70000000       0.00000000       0.00000000      36.24290536       1.26207814
      14.80000000       0.00000000       0.00000000      36.24319790       1.26208833
      14.90000000       0.00000000       0.00000000      36.24349043       1.26209851
      15.00000000       0.00000000       0.00000000      36.24378293       1.26210870
      15.10000000       0.00000000       0.00000000      36.24407540       1.26211888
      15.20000000       0.00000000       0.00000000      36.24436786       1.26212907
      15.30000000       0.00000000       0.00000000      36.24466030       1.26213925
      15.40000000       0.00000000       0.00000000      36.24495271       1.26214943
      15.50000000       0.00000000       0.00000000      36.24524510       1.26215962
      15.60000000       0.00000000       0.00000000      36.24553748       1.26216980
      15.70000000       0.00000000       0.00000000      36.24582983       1.26217998
      15.80000000       0.00000000       0.00000000      36.24612215       1.26219016
      15.90000000       0.00000000       0.00000000      36.24641446       1.26220034
      16.00000000       0.00000000       0.00000000      36.24670675       1.26221051
      16.10000000       0.00000000       0.00000000      36.24699901       1.26222069
      16.20000000       0.00000000       0.00000000      36.24729125       1.26223087
      16.30000000       0.00000000       0.00000000      36.24758348       1.26224104
      16.40000000       0.00000000       0.00000000      36.24787568       1.26225122
      16.50000000       0.00000000       0.00000000      36.24816786       1.26226139
      16.60000000       0.00000000       0.00000000      36.24846001       1.26227157
      16.70000000       0.00000000       0.00000000      36.24875215       1.26228174
      16.80000000       0.00000000       0.00000000      36.24904426       1.26229191
      16.90000000       0.00000000       0.00000000      36.24933636       1.26230208
      17.00000000       0.00000000       0.00000000      36.24962843       1.26231225
      17.10000000       0.00000000       0.00000000      36.24992048       1.26232242
      17.20000000       0.00000000       0.00000000      36.25021251       1.26233259
      17.30000000       0.00000000       0.00000000      36.25050452       1.26234276
      17.40000000       0.00000000       0.00000000      36.25079650       1.26235293
      17.50000000       0.00000000       0.00000000      36.25108847       1.26236310
      17.60000000       0.00000000       0.00000000      36.25138041       1.26237326
      17.70000000       0.00000000       0.00000000      36.25167233       1.26238343
      17.80000000       0.00000000       0.00000000      36.25196424       1.26239359
      17.90000000       0.00000000       0.00000000      36.25225612       1.26240376
      18.00000000       0.00000000       0.00000000      36.25254798       1.26241392
      18.10000000       0.00000000       0.00000000      36.25283981       1.26242408
      18.20000000       0.00000000       0.00000000      36.25313163       1.26243425
      18.30000000       0.00000000       0.00000000      36.25342342       1.26244441
      18.40000000       0.00000000       0.00000000      36.25371520       1.26245457
      18.50000000       0.00000000       0.00000000      36.25400695       1.26246473
      18.60000000       0.00000000       0.00000000      36.25429868       1.26247489
      18.70000000       0.00000000       0.00000000      36.25459039       1.26248504
      18.80000000       0.00000000       0.00000000      36.25488208       1.26249520
      18.90000000       0.00000000       0.00000000      36.25517375       1.26250536
      19.00000000       0.00000000       0.00000000      36.25546540       1.26251551
      19.10000000       0.00000000       0.00000000      36.25575702       1.26252567
      19.20000000       0.00000000       0.00000000      36.25604863       1.26253582
      19.30000000       0.00000000       0.00000000      36.25634021       1.26254598
      19.40000000       0.00000000       0.00000000      36.25663177       1.26255613
      19.50000000       0.00000000       0.00000000      36.25692332       1.26256628
      19.60000000       0.00000000       0.00000000      36.25721484       1.26257643
      19.70000000       0.00000000       0.00000000      36.25750633       1.26258659
      19.80000000       0.00000000       0.00000000      36.25779781       1.26259674
      19.90000000       0.00000000       0.00000000      36.25808927       1.26260688
      20.00000000       0.00000000       0.00000000      36.25838070       1.26261703
      20.10000000       0.00000000       0.00000000      36.25867212       1.26262718
      20.20000000       0.00000000       0.00000000      36.25896351       1.26263733
      20.30000000       0.00000000       0.00000000      36.25925489       1.26264747
      20.40000000       0.00000000       0.00000000      36.25954624       1.26265762
      20.50000000       0.00000000       0.00000000      36.25983757       1.26266777
      20.60000000       0.00000000       0.00000000      36.26012888       1.26267791
      20.70000000       0.00000000       0.00000000      36.26042017       1.26268805
      20.80000000       0.00000000       0.00000000      36.26071143       1.26269820
      20.90000000       0.00000000       0.00000000      36.26100268       1.26270834
      21.00000000       0.00000000       0.00000000      36.26129390       1.26271848
      21.10000000       0.00000000       0.00000000      36.26158511       1.26272862
      21.20000000       0.00000000       0.00000000      36.26187629       1.26273876
      21.30000000       0.00000000       0.00000000      36.26216745       1.26274890
      21.40000000       0.00000000       0.00000000      36.26245860       1.26275904
      21.50000000       0.00000000       0.00000000      36.26274972       1.26276917
      21.60000000       0.00000000       0.00000000      36.26304082       1.26277931
      21.70000000       0.00000000       0.00000000      36.26333189       1.26278945
      21.80000000       0.00000000       0.00000000      36.26362295       1.26279958
      21.90000000       0.00000000       0.00000000      36.26391399       1.26280972
      22.00000000       0.00000000       0.00000000      36.26420500       1.26281985
      22.10000000       0.00000000       0.00000000      36.26449600       1.26282998
      22.20000000       0.00000000       0.00000000      36.26478697       1.26284012
      22.30000000       0.00000000       0.00000000      36.26507793       1.26285025
      22.40000000       0.00000000       0.00000000      36.26536886       1.26286038
      22.50000000       0.00000000       0.00000000      36.26565977       1.26287051
      22.60000000       0.00000000       0.00000000      36.26595066       1.26288064
      22.70000000       0.00000000       0.00000000      36.26624153       1.26289077
      22.80000000       0.00000000       0.00000000      36.26653238       1.26290090
      22.90000000       0.00000000       0.00000000      36.26682321       1.26291102
      23.00000000       0.00000000       0.00000000      36.26711402       1.26292115
