 # applied field (T), theta (degree), phi (degree), abs for RE 1-2
     0.00000   180.00000   180.00000     0.07814     0.00000     0.00000     0.00000
     0.10000   178.48379   180.00000     0.07816     0.00000     0.00000     0.00000
     0.20000   176.96928   180.00000     0.07822     0.00000     0.00000     0.00000
     0.30000   175.45818   180.00000     0.07831     0.00000     0.00000     0.00000
     0.40000   173.95215   180.00000     0.07845     0.00000     0.00000     0.00000
     0.50000   172.58066   180.00000     0.07860     0.00000     0.00000     0.00000
     0.60000   171.08886   180.00000     0.07881     0.00000     0.00000     0.00000
     0.70000   169.60675   180.00000     0.07905     0.00000     0.00000     0.00000
     0.80000   168.13580   180.00000     0.07933     0.00000     0.00000     0.00000
     0.90000   166.67740   180.00000     0.07965     0.00000     0.00000     0.00000
     1.00000   165.23285   180.00000     0.08000     0.00000     0.00000     0.00000
     1.10000   163.80337   180.00000     0.08038     0.00000     0.00000     0.00000
     1.20000   162.39010   180.00000     0.08079     0.00000     0.00000     0.00000
     1.30000   160.87550   180.00000     0.08128     0.00000     0.00000     0.00000
     1.40000   159.49920   180.00000     0.08176     0.00000     0.00000     0.00000
     1.50000   158.14197   180.00000     0.08226     0.00000     0.00000     0.00000
     1.60000   156.80454   180.00000     0.08280     0.00000     0.00000     0.00000
     1.70000   155.37578   180.00000     0.08341     0.00000     0.00000     0.00000
     1.80000   154.08152   180.00000     0.08400     0.00000     0.00000     0.00000
     1.90000   152.80869   180.00000     0.08461     0.00000     0.00000     0.00000
     2.00000   151.45153   180.00000     0.08530     0.00000     0.00000     0.00000
     2.10000   150.22439   180.00000     0.08596     0.00000     0.00000     0.00000
     2.20000   148.91731   180.00000     0.08669     0.00000     0.00000     0.00000
     2.30000   147.63651   180.00000     0.08745     0.00000     0.00000     0.00000
     2.40000   146.48009   180.00000     0.08817     0.00000     0.00000     0.00000
     2.50000   145.24982   180.00000     0.08896     0.00000     0.00000     0.00000
     2.60000   144.04570   180.00000     0.08977     0.00000     0.00000     0.00000
     2.70000   142.86752   180.00000     0.09059     0.00000     0.00000     0.00000
     2.80000   141.62507   180.00000     0.09150     0.00000     0.00000     0.00000
     2.90000   140.49991   180.00000     0.09235     0.00000     0.00000     0.00000
     3.00000   139.39970   180.00000     0.09321     0.00000     0.00000     0.00000
     3.10000   138.24006   180.00000     0.09415     0.00000     0.00000     0.00000
     3.20000   137.19035   180.00000     0.09502     0.00000     0.00000     0.00000
     3.30000   136.08408   180.00000     0.09597     0.00000     0.00000     0.00000
     3.40000   135.00458   180.00000     0.09693     0.00000     0.00000     0.00000
     3.50000   133.95119   180.00000     0.09789     0.00000     0.00000     0.00000
     3.60000   132.92321   180.00000     0.09885     0.00000     0.00000     0.00000
     3.70000   131.84735   180.00000     0.09988     0.00000     0.00000     0.00000
     3.80000   130.86982   180.00000     0.10084     0.00000     0.00000     0.00000
     3.90000   129.84644   180.00000     0.10187     0.00000     0.00000     0.00000
     4.00000   128.84893   180.00000     0.10289     0.00000     0.00000     0.00000
     4.10000   127.87639   180.00000     0.10391     0.00000     0.00000     0.00000
     4.20000   126.92796   180.00000     0.10492     0.00000     0.00000     0.00000
     4.30000   125.94038   180.00000     0.10599     0.00000     0.00000     0.00000
     4.40000   124.97828   180.00000     0.10704     0.00000     0.00000     0.00000
     4.50000   124.04064   180.00000     0.10809     0.00000     0.00000     0.00000
     4.60000   123.12647   180.00000     0.10912     0.00000     0.00000     0.00000
     4.70000   122.17852   180.00000     0.11020     0.00000     0.00000     0.00000
     4.80000   121.25492   180.00000     0.11127     0.00000     0.00000     0.00000
     4.90000   120.35456   180.00000     0.11231     0.00000     0.00000     0.00000
     5.00000   119.42432   180.00000     0.11340     0.00000     0.00000     0.00000
     5.10000   118.51780   180.00000     0.11446     0.00000     0.00000     0.00000
     5.20000   117.63382   180.00000     0.11550     0.00000     0.00000     0.00000
     5.30000   116.72305   180.00000     0.11656     0.00000     0.00000     0.00000
     5.40000   115.78802   180.00000     0.11766     0.00000     0.00000     0.00000
     5.50000   114.87675   180.00000     0.11872     0.00000     0.00000     0.00000
     5.60000   113.94334   180.00000     0.11981     0.00000     0.00000     0.00000
     5.70000   113.03320   180.00000     0.12085     0.00000     0.00000     0.00000
     5.80000   112.10259   180.00000     0.12190     0.00000     0.00000     0.00000
     5.90000   111.15323   180.00000     0.12296     0.00000     0.00000     0.00000
     6.00000   110.18666   180.00000     0.12402     0.00000     0.00000     0.00000
     6.10000   109.20422   180.00000     0.12507     0.00000     0.00000     0.00000
     6.20000   108.20702   180.00000     0.12610     0.00000     0.00000     0.00000
     6.30000   107.19594   180.00000     0.12711     0.00000     0.00000     0.00000
     6.40000   106.13537   180.00000     0.12813     0.00000     0.00000     0.00000
     6.50000   105.02836   180.00000     0.12915     0.00000     0.00000     0.00000
     6.60000   103.87746   180.00000     0.13014     0.00000     0.00000     0.00000
     6.70000   102.65103   180.00000     0.13113     0.00000     0.00000     0.00000
     6.80000   101.32000   180.00000     0.13211     0.00000     0.00000     0.00000
     6.90000    99.85734   180.00000     0.13308     0.00000     0.00000     0.00000
     7.00000    98.17483   180.00000     0.13404     0.00000     0.00000     0.00000
     7.10000    96.12887   180.00000     0.13497     0.00000     0.00000     0.00000
     7.20000    92.95614   180.00000     0.13590     0.00000     0.00000     0.00000
     7.30000    90.00000   180.00000     0.13609     0.00000     0.00000     0.00000
     7.40000    90.00000   180.00000     0.13597     0.00000     0.00000     0.00000
     7.50000    90.00000   180.00000     0.13584     0.00000     0.00000     0.00000
     7.60000    90.00000   180.00000     0.13572     0.00000     0.00000     0.00000
     7.70000    90.00000   180.00000     0.13560     0.00000     0.00000     0.00000
     7.80000    90.00000   180.00000     0.13547     0.00000     0.00000     0.00000
     7.90000    90.00000   180.00000     0.13535     0.00000     0.00000     0.00000
     8.00000    90.00000   180.00000     0.13522     0.00000     0.00000     0.00000
     8.10000    90.00000   180.00000     0.13510     0.00000     0.00000     0.00000
     8.20000    90.00000   180.00000     0.13498     0.00000     0.00000     0.00000
     8.30000    90.00000   180.00000     0.13485     0.00000     0.00000     0.00000
     8.40000    90.00000   180.00000     0.13473     0.00000     0.00000     0.00000
     8.50000    90.00000   180.00000     0.13460     0.00000     0.00000     0.00000
     8.60000    90.00000   180.00000     0.13448     0.00000     0.00000     0.00000
     8.70000    90.00000   180.00000     0.13436     0.00000     0.00000     0.00000
     8.80000    90.00000   180.00000     0.13423     0.00000     0.00000     0.00000
     8.90000    90.00000   180.00000     0.13411     0.00000     0.00000     0.00000
     9.00000    90.00000   180.00000     0.13398     0.00000     0.00000     0.00000
     9.10000    90.00000   180.00000     0.13386     0.00000     0.00000     0.00000
     9.20000    90.00000   180.00000     0.13374     0.00000     0.00000     0.00000
     9.30000    90.00000   180.00000     0.13361     0.00000     0.00000     0.00000
     9.40000    90.00000   180.00000     0.13349     0.00000     0.00000     0.00000
     9.50000    90.00000   180.00000     0.13337     0.00000     0.00000     0.00000
     9.60000    90.00000   180.00000     0.13324     0.00000     0.00000     0.00000
     9.70000    90.00000   180.00000     0.13312     0.00000     0.00000     0.00000
     9.80000    90.00000   180.00000     0.13299     0.00000     0.00000     0.00000
     9.90000    90.00000   180.00000     0.13287     0.00000     0.00000     0.00000
    10.00000    90.00000   180.00000     0.13275     0.00000     0.00000     0.00000
    10.10000    90.00000   180.00000     0.13262     0.00000     0.00000     0.00000
    10.20000    90.00000   180.00000     0.13250     0.00000     0.00000     0.00000
    10.30000    90.00000   180.00000     0.13238     0.00000     0.00000     0.00000
    10.40000    90.00000   180.00000     0.13225     0.00000     0.00000     0.00000
    10.50000    90.00000   180.00000     0.13213     0.00000     0.00000     0.00000
    10.60000    90.00000   180.00000     0.13200     0.00000     0.00000     0.00000
    10.70000    90.00000   180.00000     0.13188     0.00000     0.00000     0.00000
    10.80000    90.00000   180.00000     0.13176     0.00000     0.00000     0.00000
    10.90000    90.00000   180.00000     0.13163     0.00000     0.00000     0.00000
    11.00000    90.00000   180.00000     0.13151     0.00000     0.00000     0.00000
    11.10000    90.00000   180.00000     0.13139     0.00000     0.00000     0.00000
    11.20000    90.00000   180.00000     0.13126     0.00000     0.00000     0.00000
    11.30000    90.00000   180.00000     0.13114     0.00000     0.00000     0.00000
    11.40000    90.00000   180.00000     0.13101     0.00000     0.00000     0.00000
    11.50000    90.00000   180.00000     0.13089     0.00000     0.00000     0.00000
    11.60000    90.00000   180.00000     0.13077     0.00000     0.00000     0.00000
    11.70000    90.00000   180.00000     0.13064     0.00000     0.00000     0.00000
    11.80000    90.00000   180.00000     0.13052     0.00000     0.00000     0.00000
    11.90000    90.00000   180.00000     0.13040     0.00000     0.00000     0.00000
    12.00000    90.00000   180.00000     0.13027     0.00000     0.00000     0.00000
    12.10000    90.00000   180.00000     0.13015     0.00000     0.00000     0.00000
    12.20000    90.00000   180.00000     0.13003     0.00000     0.00000     0.00000
    12.30000    90.00000   180.00000     0.12990     0.00000     0.00000     0.00000
    12.40000    90.00000   180.00000     0.12978     0.00000     0.00000     0.00000
    12.50000    90.00000   180.00000     0.12966     0.00000     0.00000     0.00000
    12.60000    90.00000   180.00000     0.12953     0.00000     0.00000     0.00000
    12.70000    90.00000   180.00000     0.12941     0.00000     0.00000     0.00000
    12.80000    90.00000   180.00000     0.12928     0.00000     0.00000     0.00000
    12.90000    90.00000   180.00000     0.12916     0.00000     0.00000     0.00000
    13.00000    90.00000   180.00000     0.12904     0.00000     0.00000     0.00000
    13.10000    90.00000   180.00000     0.12891     0.00000     0.00000     0.00000
    13.20000    90.00000   180.00000     0.12879     0.00000     0.00000     0.00000
    13.30000    90.00000   180.00000     0.12867     0.00000     0.00000     0.00000
    13.40000    90.00000   180.00000     0.12854     0.00000     0.00000     0.00000
    13.50000    90.00000   180.00000     0.12842     0.00000     0.00000     0.00000
    13.60000    90.00000   180.00000     0.12830     0.00000     0.00000     0.00000
    13.70000    90.00000   180.00000     0.12817     0.00000     0.00000     0.00000
    13.80000    90.00000   180.00000     0.12805     0.00000     0.00000     0.00000
    13.90000    90.00000   180.00000     0.12793     0.00000     0.00000     0.00000
    14.00000    90.00000   180.00000     0.12780     0.00000     0.00000     0.00000
    14.10000    90.00000   180.00000     0.12768     0.00000     0.00000     0.00000
    14.20000    90.00000   180.00000     0.12756     0.00000     0.00000     0.00000
    14.30000    90.00000   180.00000     0.12743     0.00000     0.00000     0.00000
    14.40000    90.00000   180.00000     0.12731     0.00000     0.00000     0.00000
    14.50000    90.00000   180.00000     0.12719     0.00000     0.00000     0.00000
    14.60000    90.00000   180.00000     0.12706     0.00000     0.00000     0.00000
    14.70000    90.00000   180.00000     0.12694     0.00000     0.00000     0.00000
    14.80000    90.00000   180.00000     0.12682     0.00000     0.00000     0.00000
    14.90000    90.00000   180.00000     0.12669     0.00000     0.00000     0.00000
    15.00000    90.00000   180.00000     0.12657     0.00000     0.00000     0.00000
    15.10000    90.00000   180.00000     0.12645     0.00000     0.00000     0.00000
    15.20000    90.00000   180.00000     0.12632     0.00000     0.00000     0.00000
    15.30000    90.00000   180.00000     0.12620     0.00000     0.00000     0.00000
    15.40000    90.00000   180.00000     0.12608     0.00000     0.00000     0.00000
    15.50000    90.00000   180.00000     0.12596     0.00000     0.00000     0.00000
    15.60000    90.00000   180.00000     0.12583     0.00000     0.00000     0.00000
    15.70000    90.00000   180.00000     0.12571     0.00000     0.00000     0.00000
    15.80000    90.00000   180.00000     0.12559     0.00000     0.00000     0.00000
    15.90000    90.00000   180.00000     0.12546     0.00000     0.00000     0.00000
    16.00000    90.00000   180.00000     0.12534     0.00000     0.00000     0.00000
    16.10000    90.00000   180.00000     0.12522     0.00000     0.00000     0.00000
    16.20000    90.00000   180.00000     0.12509     0.00000     0.00000     0.00000
    16.30000    90.00000   180.00000     0.12497     0.00000     0.00000     0.00000
    16.40000    90.00000   180.00000     0.12485     0.00000     0.00000     0.00000
    16.50000    90.00000   180.00000     0.12472     0.00000     0.00000     0.00000
    16.60000    90.00000   180.00000     0.12460     0.00000     0.00000     0.00000
    16.70000    90.00000   180.00000     0.12448     0.00000     0.00000     0.00000
    16.80000    90.00000   180.00000     0.12436     0.00000     0.00000     0.00000
    16.90000    90.00000   180.00000     0.12423     0.00000     0.00000     0.00000
    17.00000    90.00000   180.00000     0.12411     0.00000     0.00000     0.00000
    17.10000    90.00000   180.00000     0.12399     0.00000     0.00000     0.00000
    17.20000    90.00000   180.00000     0.12386     0.00000     0.00000     0.00000
    17.30000    90.00000   180.00000     0.12374     0.00000     0.00000     0.00000
    17.40000    90.00000   180.00000     0.12362     0.00000     0.00000     0.00000
    17.50000    90.00000   180.00000     0.12349     0.00000     0.00000     0.00000
    17.60000    90.00000   180.00000     0.12337     0.00000     0.00000     0.00000
    17.70000    90.00000   180.00000     0.12325     0.00000     0.00000     0.00000
    17.80000    90.00000   180.00000     0.12313     0.00000     0.00000     0.00000
    17.90000    90.00000   180.00000     0.12300     0.00000     0.00000     0.00000
    18.00000    90.00000   180.00000     0.12288     0.00000     0.00000     0.00000
    18.10000    90.00000   180.00000     0.12276     0.00000     0.00000     0.00000
    18.20000    90.00000   180.00000     0.12263     0.00000     0.00000     0.00000
    18.30000    90.00000   180.00000     0.12251     0.00000     0.00000     0.00000
    18.40000    90.00000   180.00000     0.12239     0.00000     0.00000     0.00000
    18.50000    90.00000   180.00000     0.12227     0.00000     0.00000     0.00000
    18.60000    90.00000   180.00000     0.12214     0.00000     0.00000     0.00000
    18.70000    90.00000   180.00000     0.12202     0.00000     0.00000     0.00000
    18.80000    90.00000   180.00000     0.12190     0.00000     0.00000     0.00000
    18.90000    90.00000   180.00000     0.12177     0.00000     0.00000     0.00000
    19.00000    90.00000   180.00000     0.12165     0.00000     0.00000     0.00000
    19.10000    90.00000   180.00000     0.12153     0.00000     0.00000     0.00000
    19.20000    90.00000   180.00000     0.12141     0.00000     0.00000     0.00000
    19.30000    90.00000   180.00000     0.12128     0.00000     0.00000     0.00000
    19.40000    90.00000   180.00000     0.12116     0.00000     0.00000     0.00000
    19.50000    90.00000   180.00000     0.12104     0.00000     0.00000     0.00000
    19.60000    90.00000   180.00000     0.12091     0.00000     0.00000     0.00000
    19.70000    90.00000   180.00000     0.12079     0.00000     0.00000     0.00000
    19.80000    90.00000   180.00000     0.12067     0.00000     0.00000     0.00000
    19.90000    90.00000   180.00000     0.12055     0.00000     0.00000     0.00000
    20.00000    90.00000   180.00000     0.12042     0.00000     0.00000     0.00000
    20.10000    90.00000   180.00000     0.12030     0.00000     0.00000     0.00000
    20.20000    90.00000   180.00000     0.12018     0.00000     0.00000     0.00000
    20.30000    90.00000   180.00000     0.12006     0.00000     0.00000     0.00000
    20.40000    90.00000   180.00000     0.11993     0.00000     0.00000     0.00000
    20.50000    90.00000   180.00000     0.11981     0.00000     0.00000     0.00000
    20.60000    90.00000   180.00000     0.11969     0.00000     0.00000     0.00000
    20.70000    90.00000   180.00000     0.11956     0.00000     0.00000     0.00000
    20.80000    90.00000   180.00000     0.11944     0.00000     0.00000     0.00000
    20.90000    90.00000   180.00000     0.11932     0.00000     0.00000     0.00000
    21.00000    90.00000   180.00000     0.11920     0.00000     0.00000     0.00000
    21.10000    90.00000   180.00000     0.11907     0.00000     0.00000     0.00000
    21.20000    90.00000   180.00000     0.11895     0.00000     0.00000     0.00000
    21.30000    90.00000   180.00000     0.11883     0.00000     0.00000     0.00000
    21.40000    90.00000   180.00000     0.11871     0.00000     0.00000     0.00000
    21.50000    90.00000   180.00000     0.11858     0.00000     0.00000     0.00000
    21.60000    90.00000   180.00000     0.11846     0.00000     0.00000     0.00000
    21.70000    90.00000   180.00000     0.11834     0.00000     0.00000     0.00000
    21.80000    90.00000   180.00000     0.11822     0.00000     0.00000     0.00000
    21.90000    90.00000   180.00000     0.11809     0.00000     0.00000     0.00000
    22.00000    90.00000   180.00000     0.11797     0.00000     0.00000     0.00000
    22.10000    90.00000   180.00000     0.11785     0.00000     0.00000     0.00000
    22.20000    90.00000   180.00000     0.11773     0.00000     0.00000     0.00000
    22.30000    90.00000   180.00000     0.11760     0.00000     0.00000     0.00000
    22.40000    90.00000   180.00000     0.11748     0.00000     0.00000     0.00000
    22.50000    90.00000   180.00000     0.11736     0.00000     0.00000     0.00000
    22.60000    90.00000   180.00000     0.11724     0.00000     0.00000     0.00000
    22.70000    90.00000   180.00000     0.11711     0.00000     0.00000     0.00000
    22.80000    90.00000   180.00000     0.11699     0.00000     0.00000     0.00000
    22.90000    90.00000   180.00000     0.11687     0.00000     0.00000     0.00000
    23.00000    90.00000   180.00000     0.11675     0.00000     0.00000     0.00000
    23.10000    90.00000   180.00000     0.11663     0.00000     0.00000     0.00000
    23.20000    90.00000   180.00000     0.11650     0.00000     0.00000     0.00000
    23.30000    90.00000   180.00000     0.11638     0.00000     0.00000     0.00000
