 # applied field (T), magnetization (2 f.u.), magnetization (T)
 # T=0 1st order approx.
 # K1(0) (K, MJ/m^3)   54.5497251852608        4.35031775189416     
 # K2(0) (K, MJ/m^3)  -16.8258583773546       -1.34185516317946     
 # from A20
 # K1(0) from A20 (K, MJ/m^3)   141.280691015994        5.63353798794956     
  0.000000000000000E+000  2.282326616413516E-015  7.681931311378787E-017
  0.100000000000000       0.706963242823691       2.379520543635123E-002
  0.200000000000000        1.41368747714790       4.758236624463436E-002
  0.300000000000000        2.11992007851229       7.135297950621443E-002
  0.400000000000000        2.82540844756893       9.509854314769721E-002
  0.500000000000000        3.56692252960357       0.120056672293829     
  0.600000000000000        4.27009267318410       0.143724208326364     
  0.700000000000000        4.97174887941033       0.167340787748736     
  0.800000000000000        5.70839891304362       0.192135201125855     
  0.900000000000000        6.44280057289505       0.216853937985730     
   1.00000000000000        7.13815621197764       0.240258450810482     
   1.10000000000000        7.86733540077881       0.264801407991868     
   1.20000000000000        8.62960342401497       0.290458080236975     
   1.30000000000000        9.35210496007489       0.314776278747492     
   1.40000000000000        10.1067267457930       0.340175591371143     
   1.50000000000000        10.8569434400816       0.365426635953143     
   1.60000000000000        11.6024265175250       0.390518354875103     
   1.70000000000000        12.3779555783601       0.416621371561974     
   1.80000000000000        13.1475591085051       0.442524944753698     
   1.90000000000000        13.9453886346581       0.469378557965853     
   2.00000000000000        14.7359197135466       0.495986517597301     
   2.10000000000000        15.5525736821918       0.523473730195102     
   2.20000000000000        16.3603629513757       0.550662571771557     
   2.30000000000000        17.1918687916846       0.578649673636498     
   2.40000000000000        18.0127392837069       0.606278807389328     
   2.50000000000000        18.8867142045198       0.635695347779602     
   2.60000000000000        19.7786371609954       0.665715989161133     
   2.70000000000000        20.6552041289693       0.695219773542269     
   2.80000000000000        21.5765364346211       0.726230284641216     
   2.90000000000000        22.5380350721677       0.758592727582111     
   3.00000000000000        23.5055924274875       0.791159096873577     
   3.10000000000000        24.5320756002661       0.825708811050606     
   3.20000000000000        25.5812887036143       0.861023576838095     
   3.30000000000000        26.6720790426138       0.897737763138375     
   3.40000000000000        27.8178150908629       0.936301330510039     
   3.50000000000000        29.0248561896634       0.976928323790990     
   3.60000000000000        30.3339920500861        1.02099165672812     
   3.70000000000000        31.7580208656277        1.06892209520149     
   3.80000000000000        33.3199001780853        1.12149235183644     
   3.90000000000000        35.1085252936446        1.18169449460041     
   4.00000000000000        37.2672830004864        1.25435468399927     
   4.10000000000000        37.2675206293108        1.25436268218978     
   4.20000000000000        37.2677582412912        1.25437067981334     
   4.30000000000000        37.2679958364399        1.25437867687037     
   4.40000000000000        37.2682334147698        1.25438667336131     
   4.50000000000000        37.2684709762943        1.25439466928661     
   4.60000000000000        37.2687085210271        1.25440266464673     
   4.70000000000000        37.2689460489815        1.25441065944212     
   4.80000000000000        37.2691835601686        1.25441865367314     
   4.90000000000000        37.2694210545943        1.25442664734001     
   5.00000000000000        37.2696585322514        1.25443464044247     
   5.10000000000000        37.2698959930999        1.25444263297919     
   5.20000000000000        37.2701334370104        1.25445062494579     
   5.30000000000000        37.2703708635511        1.25445861632777     
   5.40000000000000        37.2706082708639        1.25446660706256     
   5.50000000000000        37.2708456484555        1.25447459679698     
   5.60000000000000        37.2710829824819        1.25448258506507     
   5.70000000000000        37.2713202900978        1.25449057244423     
   5.80000000000000        37.2715575792375        1.25449855920151     
   5.90000000000000        37.2717948513538        1.25450654538581     
   6.00000000000000        37.2720321068401        1.25451453101038     
   6.10000000000000        37.2722693458272        1.25452251607960     
   6.20000000000000        37.2725065683384        1.25453050059428     
   6.30000000000000        37.2727437743284        1.25453848455288     
   6.40000000000000        37.2729809636917        1.25454646795186     
   6.50000000000000        37.2732181362653        1.25455445078572     
   6.60000000000000        37.2734552918309        1.25456243304712     
   6.70000000000000        37.2736924301225        1.25457041472710     
   6.80000000000000        37.2739295508393        1.25457839581555     
   6.90000000000000        37.2741666536649        1.25458637630181     
   7.00000000000000        37.2744037382896        1.25459435617545     
   7.10000000000000        37.2746408044335        1.25460233542706     
   7.20000000000000        37.2748778518656        1.25461031404887     
   7.30000000000000        37.2751148804169        1.25461829203518     
   7.40000000000000        37.2753518899849        1.25462626938254     
   7.50000000000000        37.2755888805309        1.25463424608966     
   7.60000000000000        37.2758258520721        1.25464222215710     
   7.70000000000000        37.2760628046698        1.25465019758694     
   7.80000000000000        37.2762997384167        1.25465817238229     
   7.90000000000000        37.2765366534256        1.25466614654695     
   8.00000000000000        37.2767735498191        1.25467412008505     
   8.10000000000000        37.2770104277225        1.25468209300080     
   8.20000000000000        37.2772472872577        1.25469006529831     
   8.30000000000000        37.2774841285402        1.25469803698146     
   8.40000000000000        37.2777209516771        1.25470600805387     
   8.50000000000000        37.2779577567661        1.25471397851881     
   8.60000000000000        37.2781945438955        1.25472194837926     
   8.70000000000000        37.2784313131445        1.25472991763788     
   8.80000000000000        37.2786680645840        1.25473788629707     
   8.90000000000000        37.2789047982775        1.25474585435896     
   9.00000000000000        37.2791415142817        1.25475382182545     
   9.10000000000000        37.2793782126475        1.25476178869827     
   9.20000000000000        37.2796148934207        1.25476975497895     
   9.30000000000000        37.2798537806931        1.25477779552671     
   9.40000000000000        37.2800904844897        1.25478576258232     
   9.50000000000000        37.2803271707595        1.25479372904800     
   9.60000000000000        37.2805638395286        1.25480169492464     
   9.70000000000000        37.2808004908198        1.25480966021301     
   9.80000000000000        37.2810371246522        1.25481762491373     
   9.90000000000000        37.2812737410416        1.25482558902736     
   10.0000000000000        37.2815103400003        1.25483355255430     
   10.1000000000000        37.2817469215371        1.25484151549484     
   10.2000000000000        37.2819834856571        1.25484947784917     
   10.3000000000000        37.2822200323622        1.25485743961734     
   10.4000000000000        37.2824565616506        1.25486540079929     
   10.5000000000000        37.2826930735175        1.25487336139486     
   10.6000000000000        37.2829295679548        1.25488132140378     
   10.7000000000000        37.2831660449520        1.25488928082570     
   10.8000000000000        37.2834025044960        1.25489723966017     
   10.9000000000000        37.2836389465718        1.25490519790669     
   11.0000000000000        37.2838753711630        1.25491315556471     
   11.1000000000000        37.2841117782519        1.25492111263363     
   11.2000000000000        37.2843481678200        1.25492906911283     
   11.3000000000000        37.2845845398486        1.25493702500168     
   11.4000000000000        37.2848208943187        1.25494498029954     
   11.5000000000000        37.2850572312115        1.25495293500577     
   11.6000000000000        37.2852935505088        1.25496088911977     
   11.7000000000000        37.2855298521927        1.25496884264094     
   11.8000000000000        37.2857661362463        1.25497679556869     
   11.9000000000000        37.2860024026533        1.25498474790250     
   12.0000000000000        37.2862386513987        1.25499269964184     
   12.1000000000000        37.2864748824680        1.25500065078623     
   12.2000000000000        37.2867110958481        1.25500860133523     
   12.3000000000000        37.2869472915268        1.25501655128844     
   12.4000000000000        37.2871834694929        1.25502450064547     
   12.5000000000000        37.2874196297362        1.25503244940598     
   12.6000000000000        37.2876557722478        1.25504039756966     
   12.7000000000000        37.2878918970195        1.25504834513626     
   12.8000000000000        37.2881280040443        1.25505629210552     
   12.9000000000000        37.2883640933162        1.25506423847725     
   13.0000000000000        37.2886001648301        1.25507218425127     
   13.1000000000000        37.2888362185819        1.25508012942745     
   13.2000000000000        37.2890722545686        1.25508807400569     
   13.3000000000000        37.2893082727881        1.25509601798591     
   13.4000000000000        37.2895442732391        1.25510396136808     
   13.5000000000000        37.2897802559215        1.25511190415218     
   13.6000000000000        37.2900162208361        1.25511984633825     
   13.7000000000000        37.2902521679844        1.25512778792634     
   13.8000000000000        37.2904880973693        1.25513572891654     
   13.9000000000000        37.2907240089943        1.25514366930897     
   14.0000000000000        37.2909599028641        1.25515160910379     
   14.1000000000000        37.2911957789843        1.25515954830118     
   14.2000000000000        37.2914316373613        1.25516748690138     
   14.3000000000000        37.2916674780028        1.25517542490462     
   14.4000000000000        37.2919033009172        1.25518336231120     
   14.5000000000000        37.2921391061139        1.25519129912143     
   14.6000000000000        37.2923748936033        1.25519923533566     
   14.7000000000000        37.2926107056761        1.25520717237733     
   14.8000000000000        37.2928464573846        1.25521510738724     
   14.9000000000000        37.2930821914179        1.25522304180223     
   15.0000000000000        37.2933179077894        1.25523097562275     
   15.1000000000000        37.2935536065136        1.25523890884929     
   15.2000000000000        37.2937892876049        1.25524684148234     
   15.3000000000000        37.2940249510785        1.25525477352241     
   15.4000000000000        37.2942605969494        1.25526270497000     
   15.5000000000000        37.2944962252323        1.25527063582561     
   15.6000000000000        37.2947318359416        1.25527856608971     
   15.7000000000000        37.2949674290904        1.25528649576277     
   15.8000000000000        37.2952030046908        1.25529442484517     
   15.9000000000000        37.2954385627525        1.25530235333725     
   16.0000000000000        37.2956741032828        1.25531028123925     
   16.1000000000000        37.2959096262857        1.25531820855131     
   16.2000000000000        37.2961451317610        1.25532613527341     
   16.3000000000000        37.2963806197032        1.25533406140538     
   16.4000000000000        37.2966160901009        1.25534198694684     
   16.5000000000000        37.2968515429355        1.25534991189715     
   16.6000000000000        37.2970869781801        1.25535783625541     
   16.7000000000000        37.2973223957984        1.25536576002040     
   16.8000000000000        37.2975577957439        1.25537368319055     
   16.9000000000000        37.2977931779586        1.25538160576391     
   17.0000000000000        37.2980285423723        1.25538952773812     
   17.1000000000000        37.2982638889025        1.25539744911040     
   17.2000000000000        37.2984992174537        1.25540536987753     
   17.3000000000000        37.2987345279181        1.25541329003590     
   17.4000000000000        37.2989698201764        1.25542120958148     
   17.5000000000000        37.2992050940988        1.25542912850990     
   17.6000000000000        37.2994403495473        1.25543704681652     
   17.7000000000000        37.2996755863782        1.25544496449650     
   17.8000000000000        37.2999108044449        1.25545288154492     
   17.9000000000000        37.3001460036017        1.25546079795686     
   18.0000000000000        37.3003811837071        1.25546871372755     
   18.1000000000000        37.3006163446277        1.25547662885252     
   18.2000000000000        37.3008514862419        1.25548454332767     
   18.3000000000000        37.3010866084434        1.25549245714942     
   18.4000000000000        37.3013217111435        1.25550037031479     
   18.5000000000000        37.3015567942735        1.25550828282146     
   18.6000000000000        37.3017925544295        1.25551621811569     
   18.7000000000000        37.3020275907689        1.25552412904747     
   18.8000000000000        37.3022626074459        1.25553203931744     
   18.9000000000000        37.3024976044791        1.25553994892623     
   19.0000000000000        37.3027325819069        1.25554785787514     
   19.1000000000000        37.3029675397855        1.25555576616605     
   19.2000000000000        37.3032024781868        1.25556367380139     
   19.3000000000000        37.3034373971961        1.25557158078403     
   19.4000000000000        37.3036722969095        1.25557948711720     
   19.5000000000000        37.3039071774318        1.25558739280443     
   19.6000000000000        37.3041420388737        1.25559529784945     
   19.7000000000000        37.3043768813500        1.25560320225611     
   19.8000000000000        37.3046117049776        1.25561110602836     
   19.9000000000000        37.3048465098736        1.25561900917014     
   20.0000000000000        37.3050812961539        1.25562691168534     
   20.1000000000000        37.3053160639316        1.25563481357778     
   20.2000000000000        37.3055508133165        1.25564271485114     
   20.3000000000000        37.3057855444132        1.25565061550895     
   20.4000000000000        37.3060202573212        1.25565851555456     
   20.5000000000000        37.3062549521336        1.25566641499111     
   20.6000000000000        37.3064896289372        1.25567431382151     
   20.7000000000000        37.3067242878116        1.25568221204844     
   20.8000000000000        37.3069589288293        1.25569010967434     
   20.9000000000000        37.3071935520556        1.25569800670142     
   21.0000000000000        37.3074281575483        1.25570590313161     
   21.1000000000000        37.3076627453584        1.25571379896664     
   21.2000000000000        37.3078973155296        1.25572169420797     
   21.3000000000000        37.3081318680992        1.25572958885685     
   21.4000000000000        37.3083664030981        1.25573748291434     
   21.5000000000000        37.3086009205517        1.25574537638128     
   21.6000000000000        37.3088354204797        1.25575326925835     
   21.7000000000000        37.3090699028974        1.25576116154604     
   21.8000000000000        37.3093043678157        1.25576905324473     
   21.9000000000000        37.3095388152420        1.25577694435467     
   22.0000000000000        37.3097732451806        1.25578483487600     
   22.1000000000000        37.3100076576337        1.25579272480880     
   22.2000000000000        37.3102420526017        1.25580061415309     
   22.3000000000000        37.3104764300842        1.25580850290883     
   22.4000000000000        37.3107107900809        1.25581639107604     
   22.5000000000000        37.3109451325927        1.25582427865473     
   22.6000000000000        37.3111794576225        1.25583216564501     
   22.7000000000000        37.3114137651756        1.25584005204705     
   22.8000000000000        37.3116480552569        1.25584793786102     
   22.9000000000000        37.3118823278653        1.25585582308688     
   23.0000000000000        37.3121165829897        1.25586370772426     
   23.1000000000000        37.3123508206109        1.25587159177251     
   23.2000000000000        37.3125850407072        1.25587947523090     
   23.3000000000000        37.3128192432593        1.25588735809878     
   23.4000000000000        37.3130534282515        1.25589524037563     
   23.5000000000000        37.3132875956710        1.25590312206100     
   23.6000000000000        37.3135217455076        1.25591100315457     
   23.7000000000000        37.3137558777528        1.25591888365604     
   23.8000000000000        37.3139899923997        1.25592676356518     
   23.9000000000000        37.3142240894423        1.25593464288179     
   24.0000000000000        37.3144581688754        1.25594252160569     
   24.1000000000000        37.3146922306947        1.25595039973674     
   24.2000000000000        37.3149262748966        1.25595827727482     
   24.3000000000000        37.3151603014780        1.25596615421982     
   24.4000000000000        37.3153943104363        1.25597403057166     
   24.5000000000000        37.3156283017692        1.25598190633025     
   24.6000000000000        37.3158622754747        1.25598978149554     
   24.7000000000000        37.3160962315512        1.25599765606747     
   24.8000000000000        37.3163301699970        1.25600553004597     
   24.9000000000000        37.3165640908105        1.25601340343100     
   25.0000000000000        37.3167979939895        1.25602127622248     
   25.1000000000000        37.3170318795315        1.25602914842034     
   25.2000000000000        37.3172657474331        1.25603702002444     
   25.3000000000000        37.3174995976891        1.25604489103462     
   25.4000000000000        37.3177334302924        1.25605276145064     
   25.5000000000000        37.3179672452321        1.25606063127214     
   25.6000000000000        37.3182010424926        1.25606850049858     
   25.7000000000000        37.3184368537666        1.25607643751336     
   25.8000000000000        37.3186705898521        1.25608430468075     
   25.9000000000000        37.3189043079746        1.25609217124355     
   26.0000000000000        37.3191380080570        1.25610003719913     
   26.1000000000000        37.3193716899698        1.25610790254317     
   26.2000000000000        37.3196053534929        1.25611576726823     
   26.3000000000000        37.3198389982373        1.25612363136123     
   26.4000000000000        37.3200726234823        1.25613149479792     
   26.5000000000000        37.3203062278141        1.25613935753070     
   26.6000000000000        37.3205398083447        1.25614721946238     
   26.7000000000000        37.3207733594997        1.25615508040532     
   26.8000000000000        37.3210068738886        1.25616294011078     
