 # applied field (T), theta (degree), phi (degree), abs
     0.00000     0.00000     0.00000    51.06126
     0.10000     0.34395     0.00000    51.06126
     0.20000     0.68790     0.00000    51.06126
     0.30000     1.03185     0.00000    51.06126
     0.40000     1.31847     0.00000    51.06126
     0.50000     1.66242     0.00000    51.06126
     0.60000     2.00637     0.00000    51.06126
     0.70000     2.35032     0.00000    51.06126
     0.80000     2.69427     0.00000    51.06126
     0.90000     3.03822     0.00000    51.06126
     1.00000     3.38217     0.00000    51.06126
     1.10000     3.72611     0.00000    51.06126
     1.20000     4.07006     0.00000    51.06126
     1.30000     4.35669     0.00000    51.06126
     1.40000     4.70064     0.00000    51.06126
     1.50000     5.04459     0.00000    51.06126
     1.60000     5.38854     0.00000    51.06126
     1.70000     5.73248     0.00000    51.06126
     1.80000     6.07643     0.00000    51.06126
     1.90000     6.42038     0.00000    51.06126
     2.00000     6.76433     0.00000    51.06126
     2.10000     7.10828     0.00000    51.06126
     2.20000     7.45223     0.00000    51.06126
     2.30000     7.79618     0.00000    51.06126
     2.40000     8.14013     0.00000    51.06126
     2.50000     8.48408     0.00000    51.06126
     2.60000     8.82803     0.00000    51.06126
     2.70000     9.17197     0.00000    51.06126
     2.80000     9.51592     0.00000    51.06126
     2.90000     9.85987     0.00000    51.06126
     3.00000    10.20382     0.00000    51.06126
     3.10000    10.54777     0.00000    51.06126
     3.20000    10.89172     0.00000    51.06126
     3.30000    11.23567     0.00000    51.06126
     3.40000    11.57962     0.00000    51.06126
     3.50000    11.92357     0.00000    51.06126
     3.60000    12.26752     0.00000    51.06126
     3.70000    12.61146     0.00000    51.06126
     3.80000    13.01274     0.00000    51.06126
     3.90000    13.35669     0.00000    51.06126
     4.00000    13.70064     0.00000    51.06126
     4.10000    14.04459     0.00000    51.06126
     4.20000    14.38854     0.00000    51.06126
     4.30000    14.78981     0.00000    51.06126
     4.40000    15.13376     0.00000    51.06126
     4.50000    15.47771     0.00000    51.06126
     4.60000    15.87898     0.00000    51.06126
     4.70000    16.22293     0.00000    51.06126
     4.80000    16.56688     0.00000    51.06126
     4.90000    16.96815     0.00000    51.06126
     5.00000    17.31210     0.00000    51.06126
     5.10000    17.71338     0.00000    51.06126
     5.20000    18.05732     0.00000    51.06126
     5.30000    18.45860     0.00000    51.06126
     5.40000    18.80255     0.00000    51.06126
     5.50000    19.20382     0.00000    51.06126
     5.60000    19.54777     0.00000    51.06126
     5.70000    19.94904     0.00000    51.06126
     5.80000    20.29299     0.00000    51.06126
     5.90000    20.69427     0.00000    51.06126
     6.00000    21.09554     0.00000    51.06126
     6.10000    21.49682     0.00000    51.06126
     6.20000    21.89809     0.00000    51.06126
     6.30000    22.24204     0.00000    51.06126
     6.40000    22.64331     0.00000    51.06126
     6.50000    23.04459     0.00000    51.06126
     6.60000    23.44586     0.00000    51.06126
     6.70000    23.84713     0.00000    51.06126
     6.80000    24.24841     0.00000    51.06126
     6.90000    24.70701     0.00000    51.06126
     7.00000    25.10828     0.00000    51.06126
     7.10000    25.50955     0.00000    51.06126
     7.20000    25.91083     0.00000    51.06126
     7.30000    26.36943     0.00000    51.06126
     7.40000    26.77070     0.00000    51.06126
     7.50000    27.22930     0.00000    51.06126
     7.60000    27.63057     0.00000    51.06126
     7.70000    28.08917     0.00000    51.06126
     7.80000    28.54777     0.00000    51.06126
     7.90000    29.00637     0.00000    51.06126
     8.00000    29.46497     0.00000    51.06126
     8.10000    29.92357     0.00000    51.06126
     8.20000    30.38217     0.00000    51.06126
     8.30000    30.84076     0.00000    51.06126
     8.40000    31.29936     0.00000    51.06126
     8.50000    31.81529     0.00000    51.06126
     8.60000    32.27389     0.00000    51.06126
     8.70000    32.78981     0.00000    51.06126
     8.80000    33.30573     0.00000    51.06126
     8.90000    33.82166     0.00000    51.06126
     9.00000    34.33758     0.00000    51.06126
     9.10000    34.85350     0.00000    51.06126
     9.20000    35.36943     0.00000    51.06126
     9.30000    35.94268     0.00000    51.06126
     9.40000    36.51592     0.00000    51.06126
     9.50000    37.08917     0.00000    51.06126
     9.60000    37.66242     0.00000    51.06126
     9.70000    38.23567     0.00000    51.06126
     9.80000    38.86624     0.00000    51.06126
     9.90000    39.49682     0.00000    51.06126
    10.00000    40.12739     0.00000    51.06126
    10.10000    40.81529     0.00000    51.06126
    10.20000    41.50318     0.00000    51.06126
    10.30000    42.19108     0.00000    51.06126
    10.40000    42.93631     0.00000    51.06126
    10.50000    43.68153     0.00000    51.06126
    10.60000    44.48408     0.00000    51.06126
    10.70000    45.28662     0.00000    51.06126
    10.80000    46.14650     0.00000    51.06126
    10.90000    47.06369     0.00000    51.06126
    11.00000    47.98089     0.00000    51.06126
    11.10000    49.01274     0.00000    51.06126
    11.20000    50.10191     0.00000    51.06126
    11.30000    51.24841     0.00000    51.06126
    11.40000    52.45223     0.00000    51.06126
    11.50000    53.82803     0.00000    51.06126
    11.60000    55.31847     0.00000    51.06126
    11.70000    56.98089     0.00000    51.06126
    11.80000    58.87261     0.00000    51.06126
    11.90000    61.05096     0.00000    51.06126
    12.00000    63.63057     0.00000    51.06126
    12.10000    66.78344     0.00000    51.06126
    12.20000    70.73885     0.00000    51.06126
    12.30000    75.95541     0.00000    51.06126
    12.40000    84.61146     0.00000    51.06126
    12.50000    90.00000     0.00000    51.06126
    12.60000    90.00000     0.00000    51.06126
    12.70000    90.00000     0.00000    51.06126
    12.80000    90.00000     0.00000    51.06126
    12.90000    90.00000     0.00000    51.06126
    13.00000    90.00000     0.00000    51.06126
    13.10000    90.00000     0.00000    51.06126
    13.20000    90.00000     0.00000    51.06126
    13.30000    90.00000     0.00000    51.06126
    13.40000    90.00000     0.00000    51.06126
    13.50000    90.00000     0.00000    51.06126
    13.60000    90.00000     0.00000    51.06126
    13.70000    90.00000     0.00000    51.06126
    13.80000    90.00000     0.00000    51.06126
    13.90000    90.00000     0.00000    51.06126
    14.00000    90.00000     0.00000    51.06126
    14.10000    90.00000     0.00000    51.06126
    14.20000    90.00000     0.00000    51.06126
    14.30000    90.00000     0.00000    51.06126
    14.40000    90.00000     0.00000    51.06126
    14.50000    90.00000     0.00000    51.06126
    14.60000    90.00000     0.00000    51.06126
    14.70000    90.00000     0.00000    51.06126
    14.80000    90.00000     0.00000    51.06126
    14.90000    90.00000     0.00000    51.06126
    15.00000    90.00000     0.00000    51.06126
    15.10000    90.00000     0.00000    51.06126
    15.20000    90.00000     0.00000    51.06126
    15.30000    90.00000     0.00000    51.06126
    15.40000    90.00000     0.00000    51.06126
    15.50000    90.00000     0.00000    51.06126
    15.60000    90.00000     0.00000    51.06126
    15.70000    90.00000     0.00000    51.06126
    15.80000    90.00000     0.00000    51.06126
    15.90000    90.00000     0.00000    51.06126
    16.00000    90.00000     0.00000    51.06126
    16.10000    90.00000     0.00000    51.06126
    16.20000    90.00000     0.00000    51.06126
    16.30000    90.00000     0.00000    51.06126
    16.40000    90.00000     0.00000    51.06126
    16.50000    90.00000     0.00000    51.06126
    16.60000    90.00000     0.00000    51.06126
    16.70000    90.00000     0.00000    51.06126
    16.80000    90.00000     0.00000    51.06126
    16.90000    90.00000     0.00000    51.06126
    17.00000    90.00000     0.00000    51.06126
    17.10000    90.00000     0.00000    51.06126
    17.20000    90.00000     0.00000    51.06126
    17.30000    90.00000     0.00000    51.06126
    17.40000    90.00000     0.00000    51.06126
    17.50000    90.00000     0.00000    51.06126
    17.60000    90.00000     0.00000    51.06126
    17.70000    90.00000     0.00000    51.06126
    17.80000    90.00000     0.00000    51.06126
    17.90000    90.00000     0.00000    51.06126
    18.00000    90.00000     0.00000    51.06126
    18.10000    90.00000     0.00000    51.06126
    18.20000    90.00000     0.00000    51.06126
    18.30000    90.00000     0.00000    51.06126
    18.40000    90.00000     0.00000    51.06126
    18.50000    90.00000     0.00000    51.06126
    18.60000    90.00000     0.00000    51.06126
    18.70000    90.00000     0.00000    51.06126
    18.80000    90.00000     0.00000    51.06126
    18.90000    90.00000     0.00000    51.06126
    19.00000    90.00000     0.00000    51.06126
    19.10000    90.00000     0.00000    51.06126
    19.20000    90.00000     0.00000    51.06126
    19.30000    90.00000     0.00000    51.06126
    19.40000    90.00000     0.00000    51.06126
    19.50000    90.00000     0.00000    51.06126
    19.60000    90.00000     0.00000    51.06126
    19.70000    90.00000     0.00000    51.06126
    19.80000    90.00000     0.00000    51.06126
    19.90000    90.00000     0.00000    51.06126
    20.00000    90.00000     0.00000    51.06126
    20.10000    90.00000     0.00000    51.06126
    20.20000    90.00000     0.00000    51.06126
    20.30000    90.00000     0.00000    51.06126
    20.40000    90.00000     0.00000    51.06126
    20.50000    90.00000     0.00000    51.06126
    20.60000    90.00000     0.00000    51.06126
    20.70000    90.00000     0.00000    51.06126
    20.80000    90.00000     0.00000    51.06126
    20.90000    90.00000     0.00000    51.06126
    21.00000    90.00000     0.00000    51.06126
    21.10000    90.00000     0.00000    51.06126
    21.20000    90.00000     0.00000    51.06126
    21.30000    90.00000     0.00000    51.06126
    21.40000    90.00000     0.00000    51.06126
    21.50000    90.00000     0.00000    51.06126
    21.60000    90.00000     0.00000    51.06126
    21.70000    90.00000     0.00000    51.06126
    21.80000    90.00000     0.00000    51.06126
    21.90000    90.00000     0.00000    51.06126
    22.00000    90.00000     0.00000    51.06126
    22.10000    90.00000     0.00000    51.06126
    22.20000    90.00000     0.00000    51.06126
    22.30000    90.00000     0.00000    51.06126
    22.40000    90.00000     0.00000    51.06126
    22.50000    90.00000     0.00000    51.06126
    22.60000    90.00000     0.00000    51.06126
    22.70000    90.00000     0.00000    51.06126
    22.80000    90.00000     0.00000    51.06126
    22.90000    90.00000     0.00000    51.06126
    23.00000    90.00000     0.00000    51.06126
    23.10000    90.00000     0.00000    51.06126
    23.20000    90.00000     0.00000    51.06126
    23.30000    90.00000     0.00000    51.06126
    23.40000    90.00000     0.00000    51.06126
    23.50000    90.00000     0.00000    51.06126
    23.60000    90.00000     0.00000    51.06126
    23.70000    90.00000     0.00000    51.06126
    23.80000    90.00000     0.00000    51.06126
    23.90000    90.00000     0.00000    51.06126
    24.00000    90.00000     0.00000    51.06126
    24.10000    90.00000     0.00000    51.06126
    24.20000    90.00000     0.00000    51.06126
    24.30000    90.00000     0.00000    51.06126
    24.40000    90.00000     0.00000    51.06126
    24.50000    90.00000     0.00000    51.06126
    24.60000    90.00000     0.00000    51.06126
    24.70000    90.00000     0.00000    51.06126
    24.80000    90.00000     0.00000    51.06126
    24.90000    90.00000     0.00000    51.06126
    25.00000    90.00000     0.00000    51.06126
    25.10000    90.00000     0.00000    51.06126
    25.20000    90.00000     0.00000    51.06126
    25.30000    90.00000     0.00000    51.06126
    25.40000    90.00000     0.00000    51.06126
    25.50000    90.00000     0.00000    51.06126
    25.60000    90.00000     0.00000    51.06126
    25.70000    90.00000     0.00000    51.06126
    25.80000    90.00000     0.00000    51.06126
    25.90000    90.00000     0.00000    51.06126
    26.00000    90.00000     0.00000    51.06126
    26.10000    90.00000     0.00000    51.06126
    26.20000    90.00000     0.00000    51.06126
    26.30000    90.00000     0.00000    51.06126
    26.40000    90.00000     0.00000    51.06126
    26.50000    90.00000     0.00000    51.06126
    26.60000    90.00000     0.00000    51.06126
    26.70000    90.00000     0.00000    51.06126
    26.80000    90.00000     0.00000    51.06126
    26.90000    90.00000     0.00000    51.06126
    27.00000    90.00000     0.00000    51.06126
    27.10000    90.00000     0.00000    51.06126
    27.20000    90.00000     0.00000    51.06126
    27.30000    90.00000     0.00000    51.06126
    27.40000    90.00000     0.00000    51.06126
    27.50000    90.00000     0.00000    51.06126
    27.60000    90.00000     0.00000    51.06126
    27.70000    90.00000     0.00000    51.06126
    27.80000    90.00000     0.00000    51.06126
    27.90000    90.00000     0.00000    51.06126
    28.00000    90.00000     0.00000    51.06126
    28.10000    90.00000     0.00000    51.06126
    28.20000    90.00000     0.00000    51.06126
    28.30000    90.00000     0.00000    51.06126
    28.40000    90.00000     0.00000    51.06126
    28.50000    90.00000     0.00000    51.06126
    28.60000    90.00000     0.00000    51.06126
    28.70000    90.00000     0.00000    51.06126
    28.80000    90.00000     0.00000    51.06126
    28.90000    90.00000     0.00000    51.06126
    29.00000    90.00000     0.00000    51.06126
    29.10000    90.00000     0.00000    51.06126
    29.20000    90.00000     0.00000    51.06126
    29.30000    90.00000     0.00000    51.06126
    29.40000    90.00000     0.00000    51.06126
    29.50000    90.00000     0.00000    51.06126
    29.60000    90.00000     0.00000    51.06126
    29.70000    90.00000     0.00000    51.06126
    29.80000    90.00000     0.00000    51.06126
    29.90000    90.00000     0.00000    51.06126
    30.00000    90.00000     0.00000    51.06126
    30.10000    90.00000     0.00000    51.06126
    30.20000    90.00000     0.00000    51.06126
    30.30000    90.00000     0.00000    51.06126
    30.40000    90.00000     0.00000    51.06126
    30.50000    90.00000     0.00000    51.06126
    30.60000    90.00000     0.00000    51.06126
    30.70000    90.00000     0.00000    51.06126
    30.80000    90.00000     0.00000    51.06126
    30.90000    90.00000     0.00000    51.06126
    31.00000    90.00000     0.00000    51.06126
    31.10000    90.00000     0.00000    51.06126
    31.20000    90.00000     0.00000    51.06126
    31.30000    90.00000     0.00000    51.06126
    31.40000    90.00000     0.00000    51.06126
    31.50000    90.00000     0.00000    51.06126
    31.60000    90.00000     0.00000    51.06126
    31.70000    90.00000     0.00000    51.06126
    31.80000    90.00000     0.00000    51.06126
    31.90000    90.00000     0.00000    51.06126
    32.00000    90.00000     0.00000    51.06126
    32.10000    90.00000     0.00000    51.06126
    32.20000    90.00000     0.00000    51.06126
    32.30000    90.00000     0.00000    51.06126
    32.40000    90.00000     0.00000    51.06126
    32.50000    90.00000     0.00000    51.06126
    32.60000    90.00000     0.00000    51.06126
    32.70000    90.00000     0.00000    51.06126
    32.80000    90.00000     0.00000    51.06126
    32.90000    90.00000     0.00000    51.06126
    33.00000    90.00000     0.00000    51.06126
    33.10000    90.00000     0.00000    51.06126
    33.20000    90.00000     0.00000    51.06126
    33.30000    90.00000     0.00000    51.06126
    33.40000    90.00000     0.00000    51.06126
    33.50000    90.00000     0.00000    51.06126
    33.60000    90.00000     0.00000    51.06126
    33.70000    90.00000     0.00000    51.06126
    33.80000    90.00000     0.00000    51.06126
    33.90000    90.00000     0.00000    51.06126
    34.00000    90.00000     0.00000    51.06126
    34.10000    90.00000     0.00000    51.06126
    34.20000    90.00000     0.00000    51.06126
    34.30000    90.00000     0.00000    51.06126
    34.40000    90.00000     0.00000    51.06126
    34.50000    90.00000     0.00000    51.06126
    34.60000    90.00000     0.00000    51.06126
    34.70000    90.00000     0.00000    51.06126
    34.80000    90.00000     0.00000    51.06126
    34.90000    90.00000     0.00000    51.06126
    35.00000    90.00000     0.00000    51.06126
    35.10000    90.00000     0.00000    51.06126
    35.20000    90.00000     0.00000    51.06126
    35.30000    90.00000     0.00000    51.06126
    35.40000    90.00000     0.00000    51.06126
    35.50000    90.00000     0.00000    51.06126
    35.60000    90.00000     0.00000    51.06126
    35.70000    90.00000     0.00000    51.06126
    35.80000    90.00000     0.00000    51.06126
    35.90000    90.00000     0.00000    51.06126
    36.00000    90.00000     0.00000    51.06126
    36.10000    90.00000     0.00000    51.06126
    36.20000    90.00000     0.00000    51.06126
    36.30000    90.00000     0.00000    51.06126
    36.40000    90.00000     0.00000    51.06126
    36.50000    90.00000     0.00000    51.06126
    36.60000    90.00000     0.00000    51.06126
    36.70000    90.00000     0.00000    51.06126
    36.80000    90.00000     0.00000    51.06126
    36.90000    90.00000     0.00000    51.06126
    37.00000    90.00000     0.00000    51.06126
    37.10000    90.00000     0.00000    51.06126
    37.20000    90.00000     0.00000    51.06126
    37.30000    90.00000     0.00000    51.06126
    37.40000    90.00000     0.00000    51.06126
    37.50000    90.00000     0.00000    51.06126
    37.60000    90.00000     0.00000    51.06126
    37.70000    90.00000     0.00000    51.06126
    37.80000    90.00000     0.00000    51.06126
    37.90000    90.00000     0.00000    51.06126
    38.00000    90.00000     0.00000    51.06126
    38.10000    90.00000     0.00000    51.06126
    38.20000    90.00000     0.00000    51.06126
    38.30000    90.00000     0.00000    51.06126
    38.40000    90.00000     0.00000    51.06126
    38.50000    90.00000     0.00000    51.06126
    38.60000    90.00000     0.00000    51.06126
    38.70000    90.00000     0.00000    51.06126
    38.80000    90.00000     0.00000    51.06126
    38.90000    90.00000     0.00000    51.06126
    39.00000    90.00000     0.00000    51.06126
    39.10000    90.00000     0.00000    51.06126
    39.20000    90.00000     0.00000    51.06126
    39.30000    90.00000     0.00000    51.06126
    39.40000    90.00000     0.00000    51.06126
    39.50000    90.00000     0.00000    51.06126
    39.60000    90.00000     0.00000    51.06126
    39.70000    90.00000     0.00000    51.06126
    39.80000    90.00000     0.00000    51.06126
    39.90000    90.00000     0.00000    51.06126
    40.00000    90.00000     0.00000    51.06126
