 # applied field (T), theta (degree), phi (degree), abs for RE 1-2
     0.00000   180.00000   180.00000     3.79085     0.00000     0.00000     0.00000
     0.10000   179.66217   180.00000     3.79084     0.00000     0.00000     0.00000
     0.20000   179.32433   180.00000     3.79080     0.00000     0.00000     0.00000
     0.30000   178.98647   180.00000     3.79074     0.00000     0.00000     0.00000
     0.40000   178.64858   180.00000     3.79065     0.00000     0.00000     0.00000
     0.50000   178.26225   180.00000     3.79052     0.00000     0.00000     0.00000
     0.60000   177.92426   180.00000     3.79037     0.00000     0.00000     0.00000
     0.70000   177.58621   180.00000     3.79021     0.00000     0.00000     0.00000
     0.80000   177.24808   180.00000     3.79001     0.00000     0.00000     0.00000
     0.90000   176.90987   180.00000     3.78979     0.00000     0.00000     0.00000
     1.00000   176.57157   180.00000     3.78955     0.00000     0.00000     0.00000
     1.10000   176.23317   180.00000     3.78928     0.00000     0.00000     0.00000
     1.20000   175.89465   180.00000     3.78898     0.00000     0.00000     0.00000
     1.30000   175.50751   180.00000     3.78862     0.00000     0.00000     0.00000
     1.40000   175.16872   180.00000     3.78827     0.00000     0.00000     0.00000
     1.50000   174.82978   180.00000     3.78789     0.00000     0.00000     0.00000
     1.60000   174.49069   180.00000     3.78750     0.00000     0.00000     0.00000
     1.70000   174.15143   180.00000     3.78707     0.00000     0.00000     0.00000
     1.80000   173.81200   180.00000     3.78662     0.00000     0.00000     0.00000
     1.90000   173.42373   180.00000     3.78608     0.00000     0.00000     0.00000
     2.00000   173.08389   180.00000     3.78558     0.00000     0.00000     0.00000
     2.10000   172.74385   180.00000     3.78505     0.00000     0.00000     0.00000
     2.20000   172.40358   180.00000     3.78450     0.00000     0.00000     0.00000
     2.30000   172.06309   180.00000     3.78392     0.00000     0.00000     0.00000
     2.40000   171.72237   180.00000     3.78332     0.00000     0.00000     0.00000
     2.50000   171.33255   180.00000     3.78260     0.00000     0.00000     0.00000
     2.60000   170.99128   180.00000     3.78195     0.00000     0.00000     0.00000
     2.70000   170.64975   180.00000     3.78127     0.00000     0.00000     0.00000
     2.80000   170.30794   180.00000     3.78057     0.00000     0.00000     0.00000
     2.90000   169.96584   180.00000     3.77984     0.00000     0.00000     0.00000
     3.00000   169.57439   180.00000     3.77898     0.00000     0.00000     0.00000
     3.10000   169.23164   180.00000     3.77820     0.00000     0.00000     0.00000
     3.20000   168.88857   180.00000     3.77740     0.00000     0.00000     0.00000
     3.30000   168.54517   180.00000     3.77657     0.00000     0.00000     0.00000
     3.40000   168.15219   180.00000     3.77560     0.00000     0.00000     0.00000
     3.50000   167.80806   180.00000     3.77472     0.00000     0.00000     0.00000
     3.60000   167.46357   180.00000     3.77382     0.00000     0.00000     0.00000
     3.70000   167.06930   180.00000     3.77276     0.00000     0.00000     0.00000
     3.80000   166.72401   180.00000     3.77181     0.00000     0.00000     0.00000
     3.90000   166.37833   180.00000     3.77083     0.00000     0.00000     0.00000
     4.00000   165.98266   180.00000     3.76969     0.00000     0.00000     0.00000
     4.10000   165.63611   180.00000     3.76867     0.00000     0.00000     0.00000
     4.20000   165.28914   180.00000     3.76762     0.00000     0.00000     0.00000
     4.30000   164.89197   180.00000     3.76639     0.00000     0.00000     0.00000
     4.40000   164.54407   180.00000     3.76530     0.00000     0.00000     0.00000
     4.50000   164.19572   180.00000     3.76418     0.00000     0.00000     0.00000
     4.60000   163.79693   180.00000     3.76287     0.00000     0.00000     0.00000
     4.70000   163.44759   180.00000     3.76170     0.00000     0.00000     0.00000
     4.80000   163.04764   180.00000     3.76034     0.00000     0.00000     0.00000
     4.90000   162.69726   180.00000     3.75913     0.00000     0.00000     0.00000
     5.00000   162.29611   180.00000     3.75771     0.00000     0.00000     0.00000
     5.10000   161.94465   180.00000     3.75645     0.00000     0.00000     0.00000
     5.20000   161.54223   180.00000     3.75498     0.00000     0.00000     0.00000
     5.30000   161.18965   180.00000     3.75367     0.00000     0.00000     0.00000
     5.40000   160.78593   180.00000     3.75216     0.00000     0.00000     0.00000
     5.50000   160.43218   180.00000     3.75080     0.00000     0.00000     0.00000
     5.60000   160.02711   180.00000     3.74923     0.00000     0.00000     0.00000
     5.70000   159.67216   180.00000     3.74783     0.00000     0.00000     0.00000
     5.80000   159.26569   180.00000     3.74621     0.00000     0.00000     0.00000
     5.90000   158.85846   180.00000     3.74456     0.00000     0.00000     0.00000
     6.00000   158.50158   180.00000     3.74310     0.00000     0.00000     0.00000
     6.10000   158.09287   180.00000     3.74140     0.00000     0.00000     0.00000
     6.20000   157.68336   180.00000     3.73968     0.00000     0.00000     0.00000
     6.30000   157.32446   180.00000     3.73815     0.00000     0.00000     0.00000
     6.40000   156.91341   180.00000     3.73638     0.00000     0.00000     0.00000
     6.50000   156.50153   180.00000     3.73458     0.00000     0.00000     0.00000
     6.60000   156.08879   180.00000     3.73276     0.00000     0.00000     0.00000
     6.70000   155.72702   180.00000     3.73115     0.00000     0.00000     0.00000
     6.80000   155.31265   180.00000     3.72928     0.00000     0.00000     0.00000
     6.90000   154.89739   180.00000     3.72740     0.00000     0.00000     0.00000
     7.00000   154.48124   180.00000     3.72548     0.00000     0.00000     0.00000
     7.10000   154.06417   180.00000     3.72355     0.00000     0.00000     0.00000
     7.20000   153.64618   180.00000     3.72159     0.00000     0.00000     0.00000
     7.30000   153.22726   180.00000     3.71961     0.00000     0.00000     0.00000
     7.40000   152.80738   180.00000     3.71761     0.00000     0.00000     0.00000
     7.50000   152.38656   180.00000     3.71558     0.00000     0.00000     0.00000
     7.60000   151.96476   180.00000     3.71354     0.00000     0.00000     0.00000
     7.70000   151.54198   180.00000     3.71147     0.00000     0.00000     0.00000
     7.80000   151.11821   180.00000     3.70939     0.00000     0.00000     0.00000
     7.90000   150.69344   180.00000     3.70728     0.00000     0.00000     0.00000
     8.00000   150.21429   180.00000     3.70489     0.00000     0.00000     0.00000
     8.10000   149.78735   180.00000     3.70274     0.00000     0.00000     0.00000
     8.20000   149.35938   180.00000     3.70058     0.00000     0.00000     0.00000
     8.30000   148.87659   180.00000     3.69812     0.00000     0.00000     0.00000
     8.40000   148.44639   180.00000     3.69592     0.00000     0.00000     0.00000
     8.50000   148.01512   180.00000     3.69369     0.00000     0.00000     0.00000
     8.60000   147.52859   180.00000     3.69118     0.00000     0.00000     0.00000
     8.70000   147.09502   180.00000     3.68892     0.00000     0.00000     0.00000
     8.80000   146.60588   180.00000     3.68636     0.00000     0.00000     0.00000
     8.90000   146.16997   180.00000     3.68407     0.00000     0.00000     0.00000
     9.00000   145.67817   180.00000     3.68148     0.00000     0.00000     0.00000
     9.10000   145.18495   180.00000     3.67887     0.00000     0.00000     0.00000
     9.20000   144.74539   180.00000     3.67653     0.00000     0.00000     0.00000
     9.30000   144.24945   180.00000     3.67389     0.00000     0.00000     0.00000
     9.40000   143.75205   180.00000     3.67123     0.00000     0.00000     0.00000
     9.50000   143.25319   180.00000     3.66855     0.00000     0.00000     0.00000
     9.60000   142.75285   180.00000     3.66586     0.00000     0.00000     0.00000
     9.70000   142.25102   180.00000     3.66316     0.00000     0.00000     0.00000
     9.80000   141.74769   180.00000     3.66044     0.00000     0.00000     0.00000
     9.90000   141.24286   180.00000     3.65771     0.00000     0.00000     0.00000
    10.00000   140.73650   180.00000     3.65497     0.00000     0.00000     0.00000
    10.10000   140.22862   180.00000     3.65222     0.00000     0.00000     0.00000
    10.20000   139.66246   180.00000     3.64916     0.00000     0.00000     0.00000
    10.30000   139.15134   180.00000     3.64638     0.00000     0.00000     0.00000
    10.40000   138.58155   180.00000     3.64330     0.00000     0.00000     0.00000
    10.50000   138.06714   180.00000     3.64051     0.00000     0.00000     0.00000
    10.60000   137.49370   180.00000     3.63741     0.00000     0.00000     0.00000
    10.70000   136.91831   180.00000     3.63430     0.00000     0.00000     0.00000
    10.80000   136.34098   180.00000     3.63119     0.00000     0.00000     0.00000
    10.90000   135.81976   180.00000     3.62838     0.00000     0.00000     0.00000
    11.00000   135.18045   180.00000     3.62495     0.00000     0.00000     0.00000
    11.10000   134.59725   180.00000     3.62183     0.00000     0.00000     0.00000
    11.20000   134.01207   180.00000     3.61871     0.00000     0.00000     0.00000
    11.30000   133.42493   180.00000     3.61559     0.00000     0.00000     0.00000
    11.40000   132.77675   180.00000     3.61216     0.00000     0.00000     0.00000
    11.50000   132.18545   180.00000     3.60905     0.00000     0.00000     0.00000
    11.60000   131.53271   180.00000     3.60563     0.00000     0.00000     0.00000
    11.70000   130.87757   180.00000     3.60223     0.00000     0.00000     0.00000
    11.80000   130.22004   180.00000     3.59883     0.00000     0.00000     0.00000
    11.90000   129.56012   180.00000     3.59544     0.00000     0.00000     0.00000
    12.00000   128.89782   180.00000     3.59207     0.00000     0.00000     0.00000
    12.10000   128.17256   180.00000     3.58841     0.00000     0.00000     0.00000
    12.20000   127.44448   180.00000     3.58477     0.00000     0.00000     0.00000
    12.30000   126.77462   180.00000     3.58145     0.00000     0.00000     0.00000
    12.40000   126.04116   180.00000     3.57786     0.00000     0.00000     0.00000
    12.50000   125.24340   180.00000     3.57401     0.00000     0.00000     0.00000
    12.60000   124.50415   180.00000     3.57048     0.00000     0.00000     0.00000
    12.70000   123.70017   180.00000     3.56669     0.00000     0.00000     0.00000
    12.80000   122.89299   180.00000     3.56295     0.00000     0.00000     0.00000
    12.90000   122.08263   180.00000     3.55926     0.00000     0.00000     0.00000
    13.00000   121.20641   180.00000     3.55533     0.00000     0.00000     0.00000
    13.10000   120.32660   180.00000     3.55147     0.00000     0.00000     0.00000
    13.20000   119.37999   180.00000     3.54740     0.00000     0.00000     0.00000
    13.30000   118.49289   180.00000     3.54368     0.00000     0.00000     0.00000
    13.40000   117.47482   180.00000     3.53952     0.00000     0.00000     0.00000
    13.50000   116.51641   180.00000     3.53570     0.00000     0.00000     0.00000
    13.60000   115.42561   180.00000     3.53149     0.00000     0.00000     0.00000
    13.70000   114.33010   180.00000     3.52741     0.00000     0.00000     0.00000
    13.80000   113.16512   180.00000     3.52324     0.00000     0.00000     0.00000
    13.90000   111.99517   180.00000     3.51922     0.00000     0.00000     0.00000
    14.00000   110.68960   180.00000     3.51496     0.00000     0.00000     0.00000
    14.10000   109.31266   180.00000     3.51071     0.00000     0.00000     0.00000
    14.20000   107.86383   180.00000     3.50652     0.00000     0.00000     0.00000
    14.30000   106.21005   180.00000     3.50211     0.00000     0.00000     0.00000
    14.40000   104.41585   180.00000     3.49777     0.00000     0.00000     0.00000
    14.50000   102.34649   180.00000     3.49337     0.00000     0.00000     0.00000
    14.60000    99.86528   180.00000     3.48896     0.00000     0.00000     0.00000
    14.70000    96.42919   180.00000     3.48445     0.00000     0.00000     0.00000
    14.80000    90.00000   180.00000     3.48110     0.00000     0.00000     0.00000
    14.90000    90.00000   180.00000     3.48109     0.00000     0.00000     0.00000
    15.00000    90.00000   180.00000     3.48107     0.00000     0.00000     0.00000
    15.10000    90.00000   180.00000     3.48106     0.00000     0.00000     0.00000
    15.20000    90.00000   180.00000     3.48105     0.00000     0.00000     0.00000
    15.30000    90.00000   180.00000     3.48104     0.00000     0.00000     0.00000
    15.40000    90.00000   180.00000     3.48103     0.00000     0.00000     0.00000
    15.50000    90.00000   180.00000     3.48102     0.00000     0.00000     0.00000
    15.60000    90.00000   180.00000     3.48101     0.00000     0.00000     0.00000
    15.70000    90.00000   180.00000     3.48100     0.00000     0.00000     0.00000
    15.80000    90.00000   180.00000     3.48099     0.00000     0.00000     0.00000
    15.90000    90.00000   180.00000     3.48098     0.00000     0.00000     0.00000
    16.00000    90.00000   180.00000     3.48097     0.00000     0.00000     0.00000
    16.10000    90.00000   180.00000     3.48096     0.00000     0.00000     0.00000
    16.20000    90.00000   180.00000     3.48094     0.00000     0.00000     0.00000
    16.30000    90.00000   180.00000     3.48093     0.00000     0.00000     0.00000
    16.40000    90.00000   180.00000     3.48092     0.00000     0.00000     0.00000
    16.50000    90.00000   180.00000     3.48091     0.00000     0.00000     0.00000
    16.60000    90.00000   180.00000     3.48090     0.00000     0.00000     0.00000
    16.70000    90.00000   180.00000     3.48089     0.00000     0.00000     0.00000
    16.80000    90.00000   180.00000     3.48088     0.00000     0.00000     0.00000
    16.90000    90.00000   180.00000     3.48087     0.00000     0.00000     0.00000
    17.00000    90.00000   180.00000     3.48086     0.00000     0.00000     0.00000
    17.10000    90.00000   180.00000     3.48084     0.00000     0.00000     0.00000
    17.20000    90.00000   180.00000     3.48083     0.00000     0.00000     0.00000
    17.30000    90.00000   180.00000     3.48082     0.00000     0.00000     0.00000
    17.40000    90.00000   180.00000     3.48081     0.00000     0.00000     0.00000
    17.50000    90.00000   180.00000     3.48080     0.00000     0.00000     0.00000
    17.60000    90.00000   180.00000     3.48079     0.00000     0.00000     0.00000
    17.70000    90.00000   180.00000     3.48078     0.00000     0.00000     0.00000
    17.80000    90.00000   180.00000     3.48077     0.00000     0.00000     0.00000
    17.90000    90.00000   180.00000     3.48075     0.00000     0.00000     0.00000
    18.00000    90.00000   180.00000     3.48074     0.00000     0.00000     0.00000
    18.10000    90.00000   180.00000     3.48073     0.00000     0.00000     0.00000
    18.20000    90.00000   180.00000     3.48072     0.00000     0.00000     0.00000
    18.30000    90.00000   180.00000     3.48071     0.00000     0.00000     0.00000
    18.40000    90.00000   180.00000     3.48070     0.00000     0.00000     0.00000
    18.50000    90.00000   180.00000     3.48069     0.00000     0.00000     0.00000
    18.60000    90.00000   180.00000     3.48068     0.00000     0.00000     0.00000
    18.70000    90.00000   180.00000     3.48066     0.00000     0.00000     0.00000
    18.80000    90.00000   180.00000     3.48065     0.00000     0.00000     0.00000
    18.90000    90.00000   180.00000     3.48064     0.00000     0.00000     0.00000
    19.00000    90.00000   180.00000     3.48063     0.00000     0.00000     0.00000
    19.10000    90.00000   180.00000     3.48062     0.00000     0.00000     0.00000
    19.20000    90.00000   180.00000     3.48061     0.00000     0.00000     0.00000
    19.30000    90.00000   180.00000     3.48059     0.00000     0.00000     0.00000
    19.40000    90.00000   180.00000     3.48058     0.00000     0.00000     0.00000
    19.50000    90.00000   180.00000     3.48057     0.00000     0.00000     0.00000
    19.60000    90.00000   180.00000     3.48056     0.00000     0.00000     0.00000
    19.70000    90.00000   180.00000     3.48055     0.00000     0.00000     0.00000
    19.80000    90.00000   180.00000     3.48054     0.00000     0.00000     0.00000
    19.90000    90.00000   180.00000     3.48053     0.00000     0.00000     0.00000
    20.00000    90.00000   180.00000     3.48051     0.00000     0.00000     0.00000
    20.10000    90.00000   180.00000     3.48050     0.00000     0.00000     0.00000
    20.20000    90.00000   180.00000     3.48049     0.00000     0.00000     0.00000
    20.30000    90.00000   180.00000     3.48048     0.00000     0.00000     0.00000
    20.40000    90.00000   180.00000     3.48047     0.00000     0.00000     0.00000
    20.50000    90.00000   180.00000     3.48045     0.00000     0.00000     0.00000
    20.60000    90.00000   180.00000     3.48044     0.00000     0.00000     0.00000
    20.70000    90.00000   180.00000     3.48043     0.00000     0.00000     0.00000
    20.80000    90.00000   180.00000     3.48042     0.00000     0.00000     0.00000
    20.90000    90.00000   180.00000     3.48041     0.00000     0.00000     0.00000
    21.00000    90.00000   180.00000     3.48040     0.00000     0.00000     0.00000
    21.10000    90.00000   180.00000     3.48038     0.00000     0.00000     0.00000
    21.20000    90.00000   180.00000     3.48037     0.00000     0.00000     0.00000
    21.30000    90.00000   180.00000     3.48036     0.00000     0.00000     0.00000
    21.40000    90.00000   180.00000     3.48035     0.00000     0.00000     0.00000
    21.50000    90.00000   180.00000     3.48034     0.00000     0.00000     0.00000
    21.60000    90.00000   180.00000     3.48032     0.00000     0.00000     0.00000
    21.70000    90.00000   180.00000     3.48031     0.00000     0.00000     0.00000
    21.80000    90.00000   180.00000     3.48030     0.00000     0.00000     0.00000
    21.90000    90.00000   180.00000     3.48029     0.00000     0.00000     0.00000
    22.00000    90.00000   180.00000     3.48028     0.00000     0.00000     0.00000
    22.10000    90.00000   180.00000     3.48026     0.00000     0.00000     0.00000
    22.20000    90.00000   180.00000     3.48025     0.00000     0.00000     0.00000
    22.30000    90.00000   180.00000     3.48024     0.00000     0.00000     0.00000
    22.40000    90.00000   180.00000     3.48023     0.00000     0.00000     0.00000
    22.50000    90.00000   180.00000     3.48021     0.00000     0.00000     0.00000
    22.60000    90.00000   180.00000     3.48020     0.00000     0.00000     0.00000
    22.70000    90.00000   180.00000     3.48019     0.00000     0.00000     0.00000
    22.80000    90.00000   180.00000     3.48018     0.00000     0.00000     0.00000
    22.90000    90.00000   180.00000     3.48017     0.00000     0.00000     0.00000
    23.00000    90.00000   180.00000     3.48015     0.00000     0.00000     0.00000
    23.10000    90.00000   180.00000     3.48014     0.00000     0.00000     0.00000
    23.20000    90.00000   180.00000     3.48013     0.00000     0.00000     0.00000
    23.30000    90.00000   180.00000     3.48012     0.00000     0.00000     0.00000
