 # applied field (T), magnetization (2 f.u.), magnetization (T)
  0.000000000000000E+000  2.498371384557181E-015  8.409102022672673E-017
  0.100000000000000       0.528982748356021       1.780467838630801E-002
  0.200000000000000        1.05788059908858       3.560649925999172E-002
  0.300000000000000        1.58660544698351       5.340249714626506E-002
  0.400000000000000        2.11506919474704       7.118970683692966E-002
  0.500000000000000        2.64318376515811       8.896516379940128E-002
  0.600000000000000        3.17086111355383       0.106725904596949     
  0.700000000000000        3.69801324062773       0.124468967319463     
  0.800000000000000        4.22455220547441       0.142191392022518     
  0.900000000000000        4.75039013885428       0.159890221173839     
   1.00000000000000        5.27543925666171       0.177562500106619     
   1.10000000000000        5.79961187358031       0.195205277479131     
   1.20000000000000        6.36298777262071       0.214167572042017     
   1.30000000000000        6.88506037039443       0.231739666267308     
   1.40000000000000        7.44597196034741       0.250619016290163     
   1.50000000000000        7.96556803038003       0.268107754715890     
   1.60000000000000        8.52361062244625       0.286890539047665     
   1.70000000000000        9.08000687637503       0.305617910379407     
   1.80000000000000        9.63464872290791       0.324286231279845     
   1.90000000000000        10.1874283840922       0.342891874122576     
   2.00000000000000        10.7774702048447       0.362751699203108     
   2.10000000000000        11.3260511309990       0.381216019616950     
   2.20000000000000        11.9113487898560       0.400916164108610     
   2.30000000000000        12.4940005698002       0.420527252722287     
   2.40000000000000        13.0738761930458       0.440044900524665     
   2.50000000000000        13.6508459333148       0.459464741145267     
   2.60000000000000        14.2629014710360       0.480065511279174     
   2.70000000000000        14.8713482246278       0.500544815749049     
   2.80000000000000        15.4760310676504       0.520897433257269     
   2.90000000000000        16.1141819565975       0.542376529456437     
   3.00000000000000        16.7477260947082       0.563700570094148     
   3.10000000000000        17.3764807772082       0.584863405631958     
   3.20000000000000        18.0367733349376       0.607087753529466     
   3.30000000000000        18.6912796048020       0.629117344613438     
   3.40000000000000        19.3756117356719       0.652150824509373     
   3.50000000000000        20.0884473598598       0.676143684523073     
   3.60000000000000        20.7933187487082       0.699868481638214     
   3.70000000000000        21.5245319548380       0.724479900455602     
   3.80000000000000        22.2804407426941       0.749922531427951     
   3.90000000000000        23.0592425536108       0.776135703432406     
   4.00000000000000        23.8919817080402       0.804164316596786     
   4.10000000000000        24.7422726447311       0.832783693522828     
   4.20000000000000        25.6076491086089       0.861910824171811     
   4.30000000000000        26.5473343075807       0.893539063096546     
   4.40000000000000        27.5234110035946       0.926392179208381     
   4.50000000000000        28.5878490784580       0.962219392182685     
   4.60000000000000        29.7550156278331        1.00150427453370     
   4.70000000000000        31.0578353595517        1.04535501709699     
   4.80000000000000        32.5854058175632        1.09677049482637     
   4.90000000000000        34.5038749038383        1.16134296941340     
   5.00000000000000        37.9204483148853        1.27633914075539     
   5.10000000000000        40.7400807425702        1.37124327269269     
   5.20000000000000        40.7402890783955        1.37125028492962     
   5.30000000000000        40.7404973865694        1.37125729623586     
   5.40000000000000        40.7407056671022        1.37126430661174     
   5.50000000000000        40.7409139200043        1.37127131605762     
   5.60000000000000        40.7411221452861        1.37127832457384     
   5.70000000000000        40.7413303429578        1.37128533216076     
   5.80000000000000        40.7415385130299        1.37129233881871     
   5.90000000000000        40.7417466555126        1.37129934454806     
   6.00000000000000        40.7419547704164        1.37130634934914     
   6.10000000000000        40.7421628577516        1.37131335322231     
   6.20000000000000        40.7423709175284        1.37132035616792     
   6.30000000000000        40.7425789497574        1.37132735818630     
   6.40000000000000        40.7427869544487        1.37133435927782     
   6.50000000000000        40.7429949316127        1.37134135944281     
   6.60000000000000        40.7432028812598        1.37134835868163     
   6.70000000000000        40.7434108034002        1.37135535699462     
   6.80000000000000        40.7436186980445        1.37136235438214     
   6.90000000000000        40.7438265652028        1.37136935084452     
   7.00000000000000        40.7440344048855        1.37137634638212     
   7.10000000000000        40.7442422171029        1.37138334099529     
   7.20000000000000        40.7444500018654        1.37139033468437     
   7.30000000000000        40.7446577591833        1.37139732744971     
   7.40000000000000        40.7448654890669        1.37140431929165     
   7.50000000000000        40.7450731915265        1.37141131021055     
   7.60000000000000        40.7452808665725        1.37141830020676     
   7.70000000000000        40.7454885142153        1.37142528928061     
   7.80000000000000        40.7456961344650        1.37143227743247     
   7.90000000000000        40.7459037273321        1.37143926466267     
   8.00000000000000        40.7461112928269        1.37144625097156     
   8.10000000000000        40.7463188309596        1.37145323635949     
   8.20000000000000        40.7465263417407        1.37146022082681     
   8.30000000000000        40.7467338251803        1.37146720437386     
   8.40000000000000        40.7469412812890        1.37147418700100     
   8.50000000000000        40.7471487100768        1.37148116870856     
   8.60000000000000        40.7473561115543        1.37148814949691     
   8.70000000000000        40.7475634857317        1.37149512936637     
   8.80000000000000        40.7477708326192        1.37150210831731     
   8.90000000000000        40.7479781522273        1.37150908635006     
   9.00000000000000        40.7481854445662        1.37151606346498     
   9.10000000000000        40.7483927096462        1.37152303966241     
   9.20000000000000        40.7485999474776        1.37153001494271     
   9.30000000000000        40.7488071580709        1.37153698930620     
   9.40000000000000        40.7490143414361        1.37154396275325     
   9.50000000000000        40.7492214975837        1.37155093528420     
   9.60000000000000        40.7494286265240        1.37155790689939     
   9.70000000000000        40.7496357282673        1.37156487759918     
   9.80000000000000        40.7498428028238        1.37157184738391     
   9.90000000000000        40.7500498502039        1.37157881625393     
   10.0000000000000        40.7502568704179        1.37158578420957     
   10.1000000000000        40.7504638634760        1.37159275125120     
   10.2000000000000        40.7506708293886        1.37159971737916     
   10.3000000000000        40.7508777681660        1.37160668259378     
   10.4000000000000        40.7510846798184        1.37161364689543     
   10.5000000000000        40.7512915643561        1.37162061028444     
   10.6000000000000        40.7514984217896        1.37162757276117     
   10.7000000000000        40.7517052521289        1.37163453432595     
   10.8000000000000        40.7519120553845        1.37164149497914     
   10.9000000000000        40.7521188315666        1.37164845472109     
   11.0000000000000        40.7523255806855        1.37165541355213     
   11.1000000000000        40.7525323027515        1.37166237147261     
   11.2000000000000        40.7527389977748        1.37166932848288     
   11.3000000000000        40.7529456657659        1.37167628458329     
   11.4000000000000        40.7531523067349        1.37168323977419     
   11.5000000000000        40.7533589206921        1.37169019405591     
   11.6000000000000        40.7535655076478        1.37169714742881     
   11.7000000000000        40.7537720676123        1.37170409989323     
   11.8000000000000        40.7539786005959        1.37171105144951     
   11.9000000000000        40.7541851066089        1.37171800209801     
   12.0000000000000        40.7543915856615        1.37172495183907     
   12.1000000000000        40.7545980377640        1.37173190067303     
   12.2000000000000        40.7548044629266        1.37173884860024     
   12.3000000000000        40.7550108611598        1.37174579562105     
   12.4000000000000        40.7552172324737        1.37175274173580     
   12.5000000000000        40.7554235768785        1.37175968694484     
   12.6000000000000        40.7556298943847        1.37176663124851     
   12.7000000000000        40.7558361850024        1.37177357464717     
   12.8000000000000        40.7560424487418        1.37178051714114     
   12.9000000000000        40.7562486856134        1.37178745873079     
   13.0000000000000        40.7564548956273        1.37179439941645     
   13.1000000000000        40.7566610787939        1.37180133919848     
   13.2000000000000        40.7568672351233        1.37180827807721     
   13.3000000000000        40.7570733646259        1.37181521605300     
   13.4000000000000        40.7572794673118        1.37182215312618     
   13.5000000000000        40.7574855431914        1.37182908929711     
   13.6000000000000        40.7576915922750        1.37183602456612     
   13.7000000000000        40.7578976145727        1.37184295893357     
   13.8000000000000        40.7581036100949        1.37184989239980     
   13.9000000000000        40.7583095788517        1.37185682496515     
   14.0000000000000        40.7585155208536        1.37186375662998     
   14.1000000000000        40.7587214361106        1.37187068739461     
   14.2000000000000        40.7589273246331        1.37187761725941     
   14.3000000000000        40.7591331864313        1.37188454622471     
   14.4000000000000        40.7593390215154        1.37189147429087     
   14.5000000000000        40.7595448298958        1.37189840145822     
   14.6000000000000        40.7597506115827        1.37190532772710     
   14.7000000000000        40.7599563665862        1.37191225309788     
   14.8000000000000        40.7601620949167        1.37191917757088     
   14.9000000000000        40.7603677965845        1.37192610114646     
   15.0000000000000        40.7605734715996        1.37193302382495     
   15.1000000000000        40.7607791199725        1.37193994560671     
   15.2000000000000        40.7609847417133        1.37194686649208     
   15.3000000000000        40.7611903368323        1.37195378648141     
   15.4000000000000        40.7613959053397        1.37196070557503     
   15.5000000000000        40.7616014472457        1.37196762377329     
   15.6000000000000        40.7618069625606        1.37197454107655     
   15.7000000000000        40.7620124512947        1.37198145748513     
   15.8000000000000        40.7622179134581        1.37198837299939     
   15.9000000000000        40.7624233490612        1.37199528761968     
   16.0000000000000        40.7626287581140        1.37200220134633     
   16.1000000000000        40.7628341406270        1.37200911417969     
   16.2000000000000        40.7630394966102        1.37201602612010     
   16.3000000000000        40.7632448260740        1.37202293716791     
   16.4000000000000        40.7634501290285        1.37202984732347     
   16.5000000000000        40.7636554054841        1.37203675658711     
   16.6000000000000        40.7638606554508        1.37204366495918     
   16.7000000000000        40.7640658789390        1.37205057244003     
   16.8000000000000        40.7642710759588        1.37205747903000     
   16.9000000000000        40.7644762465205        1.37206438472944     
   17.0000000000000        40.7646813906344        1.37207128953868     
   17.1000000000000        40.7648865083106        1.37207819345807     
   17.2000000000000        40.7650915995593        1.37208509648796     
   17.3000000000000        40.7652966643908        1.37209199862870     
   17.4000000000000        40.7655017028153        1.37209889988061     
   17.5000000000000        40.7657067148430        1.37210580024405     
   17.6000000000000        40.7659117004841        1.37211269971937     
   17.7000000000000        40.7661166597489        1.37211959830690     
   17.8000000000000        40.7663215926475        1.37212649600699     
   17.9000000000000        40.7665264991902        1.37213339281998     
   18.0000000000000        40.7667313793872        1.37214028874622     
   18.1000000000000        40.7669362332487        1.37214718378605     
   18.2000000000000        40.7671410607848        1.37215407793982     
   18.3000000000000        40.7673458620059        1.37216097120786     
   18.4000000000000        40.7675506369221        1.37216786359052     
   18.5000000000000        40.7677553855436        1.37217475508815     
   18.6000000000000        40.7679601078807        1.37218164570109     
   18.7000000000000        40.7681648039434        1.37218853542968     
   18.8000000000000        40.7683694737421        1.37219542427426     
   18.9000000000000        40.7685741172870        1.37220231223519     
   19.0000000000000        40.7687787345882        1.37220919931279     
   19.1000000000000        40.7689833256559        1.37221608550742     
   19.2000000000000        40.7691878905003        1.37222297081942     
   19.3000000000000        40.7693924291317        1.37222985524913     
   19.4000000000000        40.7695969415602        1.37223673879690     
   19.5000000000000        40.7698014277961        1.37224362146306     
   19.6000000000000        40.7700058878494        1.37225050324797     
   19.7000000000000        40.7702103217305        1.37225738415196     
   19.8000000000000        40.7704147294495        1.37226426417538     
   19.9000000000000        40.7706191110166        1.37227114331856     
   20.0000000000000        40.7708234664419        1.37227802158187     
   20.1000000000000        40.7710277957358        1.37228489896562     
   20.2000000000000        40.7712320989083        1.37229177547018     
   20.3000000000000        40.7714363759696        1.37229865109588     
   20.4000000000000        40.7716406269300        1.37230552584306     
   20.5000000000000        40.7718448517996        1.37231239971207     
   20.6000000000000        40.7720490505886        1.37231927270326     
   20.7000000000000        40.7722532233072        1.37232614481695     
   20.8000000000000        40.7724573699655        1.37233301605350     
   20.9000000000000        40.7726614905738        1.37233988641325     
   21.0000000000000        40.7728655851422        1.37234675589654     
   21.1000000000000        40.7730696536810        1.37235362450372     
   21.2000000000000        40.7732736962002        1.37236049223512     
   21.3000000000000        40.7734777127100        1.37236735909109     
   21.4000000000000        40.7736817032207        1.37237422507197     
   21.5000000000000        40.7738856677424        1.37238109017811     
   21.6000000000000        40.7740896062853        1.37238795440984     
   21.7000000000000        40.7742935188595        1.37239481776751     
   21.8000000000000        40.7744974054753        1.37240168025146     
   21.9000000000000        40.7747012661427        1.37240854186203     
   22.0000000000000        40.7749051008720        1.37241540259957     
   22.1000000000000        40.7751089096733        1.37242226246442     
   22.2000000000000        40.7753126925568        1.37242912145691     
   22.3000000000000        40.7755164495326        1.37243597957740     
   22.4000000000000        40.7757201806110        1.37244283682622     
   22.5000000000000        40.7759238858020        1.37244969320372     
   22.6000000000000        40.7761275651159        1.37245654871023     
   22.7000000000000        40.7763312185628        1.37246340334611     
   22.8000000000000        40.7765348461528        1.37247025711168     
   22.9000000000000        40.7767384478962        1.37247711000730     
   23.0000000000000        40.7769420238030        1.37248396203331     
   23.1000000000000        40.7771455738835        1.37249081319004     
   23.2000000000000        40.7773490981478        1.37249766347785     
   23.3000000000000        40.7775525966060        1.37250451289706     
   23.4000000000000        40.7777560692682        1.37251136144803     
   23.5000000000000        40.7779595161448        1.37251820913109     
   23.6000000000000        40.7781629372457        1.37252505594658     
   23.7000000000000        40.7783663325812        1.37253190189486     
   23.8000000000000        40.7785697021614        1.37253874697625     
   23.9000000000000        40.7787730459964        1.37254559119111     
   24.0000000000000        40.7789763640964        1.37255243453977     
   24.1000000000000        40.7791796564716        1.37255927702257     
   24.2000000000000        40.7793829231320        1.37256611863985     
   24.3000000000000        40.7795861640879        1.37257295939197     
   24.4000000000000        40.7797893793493        1.37257979927925     
   24.5000000000000        40.7799925689264        1.37258663830204     
   24.6000000000000        40.7801957328293        1.37259347646068     
   24.7000000000000        40.7803988710683        1.37260031375551     
   24.8000000000000        40.7806019836533        1.37260715018688     
   24.9000000000000        40.7808050705947        1.37261398575512     
   25.0000000000000        40.7810081319024        1.37262082046058     
   25.1000000000000        40.7812111675866        1.37262765430359     
   25.2000000000000        40.7814141776575        1.37263448728450     
   25.3000000000000        40.7816171621252        1.37264131940365     
   25.4000000000000        40.7818201209998        1.37264815066138     
   25.5000000000000        40.7820230542915        1.37265498105803     
   25.6000000000000        40.7822259620103        1.37266181059394     
   25.7000000000000        40.7824288441665        1.37266863926945     
   25.8000000000000        40.7826317007701        1.37267546708491     
   25.9000000000000        40.7828345318313        1.37268229404065     
   26.0000000000000        40.7830373373601        1.37268912013702     
   26.1000000000000        40.7832401173667        1.37269594537435     
   26.2000000000000        40.7834428718613        1.37270276975299     
   26.3000000000000        40.7836456008540        1.37270959327327     
   26.4000000000000        40.7838483043548        1.37271641593554     
   26.5000000000000        40.7840509823739        1.37272323774014     
   26.6000000000000        40.7842536349215        1.37273005868741     
   26.7000000000000        40.7844562620075        1.37273687877769     
   26.8000000000000        40.7846588636422        1.37274369801132     
   26.9000000000000        40.7848614398357        1.37275051638864     
   27.0000000000000        40.7850639905980        1.37275733390999     
   27.1000000000000        40.7852665159394        1.37276415057571     
   27.2000000000000        40.7854690158698        1.37277096638614     
