 # applied field (T), theta (degree), phi (degree), abs
     0.00000    90.00000    45.42857    37.03862
     0.10000    89.59873    45.42857    37.03862
     0.20000    89.19745    45.42857    37.03862
     0.30000    88.79618    45.42857    37.03862
     0.40000    88.39490    44.57143    37.03862
     0.50000    87.93631    45.42857    37.03862
     0.60000    87.53503    45.42857    37.03862
     0.70000    87.13376    45.42857    37.03862
     0.80000    86.73248    45.42857    37.03862
     0.90000    86.33121    45.42857    37.03862
     1.00000    85.92994    44.57143    37.03862
     1.10000    85.52866    44.57143    37.03862
     1.20000    85.12739    45.42857    37.03862
     1.30000    84.72611    45.42857    37.03862
     1.40000    84.26752    44.57143    37.03862
     1.50000    83.86624    45.42857    37.03862
     1.60000    83.46497    44.57143    37.03862
     1.70000    83.06369    45.00000    37.03862
     1.80000    82.66242    45.00000    37.03862
     1.90000    82.26115    45.00000    37.03862
     2.00000    81.85987    45.00000    37.03862
     2.10000    81.45860    45.00000    37.03862
     2.20000    81.00000    45.00000    37.03862
     2.30000    80.59873    45.00000    37.03862
     2.40000    80.19745    45.00000    37.03862
     2.50000    79.79618    45.00000    37.03862
     2.60000    79.39490    45.43689    37.03862
     2.70000    78.99363    45.43689    37.03862
     2.80000    78.59236    44.56311    37.03862
     2.90000    78.19108    44.56311    37.03862
     3.00000    77.78981    44.56311    37.03862
     3.10000    77.33121    44.56311    37.03862
     3.20000    76.92994    44.56311    37.03862
     3.30000    76.52866    45.00000    37.03862
     3.40000    76.12739    45.00000    37.03862
     3.50000    75.72611    45.00000    37.03862
     3.60000    75.32484    45.00000    37.03862
     3.70000    74.92357    45.00000    37.03862
     3.80000    74.52229    45.44554    37.03862
     3.90000    74.06369    44.55446    37.03862
     4.00000    73.66242    44.55446    37.03862
     4.10000    73.26115    45.44554    37.03862
     4.20000    72.85987    44.55446    37.03862
     4.30000    72.45860    45.00000    37.03862
     4.40000    72.05732    45.00000    37.03862
     4.50000    71.65605    45.00000    37.03862
     4.60000    71.19745    45.00000    37.03862
     4.70000    70.79618    44.54545    37.03862
     4.80000    70.39490    45.45455    37.03862
     4.90000    69.99363    44.54545    37.03862
     5.00000    69.59236    44.54545    37.03862
     5.10000    69.19108    45.00000    37.03862
     5.20000    68.78981    45.00000    37.03862
     5.30000    68.33121    45.00000    37.03862
     5.40000    67.92994    45.00000    37.03862
     5.50000    67.52866    44.53608    37.03862
     5.60000    67.12739    44.53608    37.03862
     5.70000    66.72611    44.53608    37.03862
     5.80000    66.32484    45.00000    37.03862
     5.90000    65.86624    45.00000    37.03862
     6.00000    65.46497    45.00000    37.03862
     6.10000    65.06369    44.52632    37.03862
     6.20000    64.66242    45.47368    37.03862
     6.30000    64.26115    44.52632    37.03862
     6.40000    63.80255    45.00000    37.03862
     6.50000    63.40127    45.00000    37.03862
     6.60000    63.00000    45.00000    37.03862
     6.70000    62.59873    44.51613    37.03862
     6.80000    62.19745    44.51613    37.03862
     6.90000    61.73885    45.48387    37.03862
     7.00000    61.33758    45.00000    37.03862
     7.10000    60.93631    45.00000    37.03862
     7.20000    60.53503    45.00000    37.03862
     7.30000    60.07643    44.50549    37.03862
     7.40000    59.67516    45.49451    37.03862
     7.50000    59.27389    44.50549    37.03862
     7.60000    58.87261    45.00000    37.03862
     7.70000    58.41401    45.00000    37.03862
     7.80000    58.01274    45.50562    37.03862
     7.90000    57.61146    45.50562    37.03862
     8.00000    57.15287    45.00000    37.03862
     8.10000    56.75159    45.00000    37.03862
     8.20000    56.35032    45.00000    37.03862
     8.30000    55.89172    45.51724    37.03862
     8.40000    55.49045    44.48276    37.03862
     8.50000    55.08917    45.00000    37.03862
     8.60000    54.63057    45.00000    37.03862
     8.70000    54.22930    44.47059    37.03862
     8.80000    53.77070    44.47059    37.03862
     8.90000    53.36943    44.47059    37.03862
     9.00000    52.96815    45.00000    37.03862
     9.10000    52.50955    45.00000    37.03862
     9.20000    52.10828    44.45783    37.03862
     9.30000    51.64968    45.54217    37.03862
     9.40000    51.24841    45.00000    37.03862
     9.50000    50.78981    45.00000    37.03862
     9.60000    50.38854    45.55556    37.03862
     9.70000    49.92994    44.44444    37.03862
     9.80000    49.52866    45.00000    37.03862
     9.90000    49.07006    45.00000    37.03862
    10.00000    48.61146    45.56962    37.03862
    10.10000    48.21019    44.43038    37.03862
    10.20000    47.75159    45.00000    37.03862
    10.30000    47.35032    45.00000    37.03862
    10.40000    46.89172    45.58442    37.03862
    10.50000    46.43312    45.00000    37.03862
    10.60000    45.97452    45.00000    37.03862
    10.70000    45.51592    45.60000    37.03862
    10.80000    45.11465    45.60000    37.03862
    10.90000    44.65605    45.00000    37.03862
    11.00000    44.19745    45.00000    37.03862
    11.10000    43.73885    45.61644    37.03862
    11.20000    43.28025    45.00000    37.03862
    11.30000    42.82166    45.00000    37.03862
    11.40000    42.36306    44.36620    37.03862
    11.50000    41.90446    45.00000    37.03862
    11.60000    41.44586    45.00000    37.03862
    11.70000    40.98726    44.34783    37.03862
    11.80000    40.52866    45.65217    37.03862
    11.90000    40.07006    45.00000    37.03862
    12.00000    39.55414    45.67164    37.03862
    12.10000    39.09554    45.67164    37.03862
    12.20000    38.63694    45.00000    37.03862
    12.30000    38.12102    45.69231    37.03862
    12.40000    37.66242    45.00000    37.03862
    12.50000    37.14650    45.00000    37.03862
    12.60000    36.68790    45.71429    37.03862
    12.70000    36.17197    45.00000    37.03862
    12.80000    35.65605    45.00000    37.03862
    12.90000    35.19745    45.73770    37.03862
    13.00000    34.68153    45.00000    37.03862
    13.10000    34.16561    44.23729    37.03862
    13.20000    33.64968    45.76271    37.03862
    13.30000    33.13376    45.00000    37.03862
    13.40000    32.61783    44.21053    37.03862
    13.50000    32.10191    45.00000    37.03862
    13.60000    31.52866    45.81818    37.03862
    13.70000    31.01274    45.00000    37.03862
    13.80000    30.43949    45.00000    37.03862
    13.90000    29.92357    45.84906    37.03862
    14.00000    29.35032    45.00000    37.03862
    14.10000    28.77707    44.11765    37.03862
    14.20000    28.20382    45.00000    37.03862
    14.30000    27.63057    44.08163    37.03862
    14.40000    27.05732    45.00000    37.03862
    14.50000    26.42675    44.04255    37.03862
    14.60000    25.79618    45.00000    37.03862
    14.70000    25.22293    46.00000    37.03862
    14.80000    24.53503    45.00000    37.03862
    14.90000    23.90446    46.04651    37.03862
    15.00000    23.27389    45.00000    37.03862
    15.10000    22.58599    43.90244    37.03862
    15.20000    21.89809    45.00000    37.03862
    15.30000    21.15287    45.00000    37.03862
    15.40000    20.46497    46.21622    37.03862
    15.50000    19.71975    45.00000    37.03862
    15.60000    18.91720    45.00000    37.03862
    15.70000    18.11465    46.36364    37.03862
    15.80000    17.25478    45.00000    37.03862
    15.90000    16.39490    45.00000    37.03862
    16.00000    15.47771    45.00000    37.03862
    16.10000    14.50318    43.33333    37.03862
    16.20000    13.47134    43.20000    37.03862
    16.30000    12.38217    46.95652    37.03862
    16.40000    11.17834    47.14286    37.03862
    16.50000     9.80255    45.00000    37.03862
    16.60000     8.25478    45.00000    37.03862
    16.70000     6.36306    45.00000    37.03862
    16.80000     3.49682    38.57143    37.03862
    16.90000     0.00000     0.00000    37.03862
    17.00000     0.00000     0.00000    37.03862
    17.10000     0.00000     0.00000    37.03862
    17.20000     0.00000     0.00000    37.03862
    17.30000     0.00000     0.00000    37.03862
    17.40000     0.00000     0.00000    37.03862
    17.50000     0.00000     0.00000    37.03862
    17.60000     0.00000     0.00000    37.03862
    17.70000     0.00000     0.00000    37.03862
    17.80000     0.00000     0.00000    37.03862
    17.90000     0.00000     0.00000    37.03862
    18.00000     0.00000     0.00000    37.03862
    18.10000     0.00000     0.00000    37.03862
    18.20000     0.00000     0.00000    37.03862
    18.30000     0.00000     0.00000    37.03862
    18.40000     0.00000     0.00000    37.03862
    18.50000     0.00000     0.00000    37.03862
    18.60000     0.00000     0.00000    37.03862
    18.70000     0.00000     0.00000    37.03862
    18.80000     0.00000     0.00000    37.03862
    18.90000     0.00000     0.00000    37.03862
    19.00000     0.00000     0.00000    37.03862
    19.10000     0.00000     0.00000    37.03862
    19.20000     0.00000     0.00000    37.03862
    19.30000     0.00000     0.00000    37.03862
    19.40000     0.00000     0.00000    37.03862
    19.50000     0.00000     0.00000    37.03862
    19.60000     0.00000     0.00000    37.03862
    19.70000     0.00000     0.00000    37.03862
    19.80000     0.00000     0.00000    37.03862
    19.90000     0.00000     0.00000    37.03862
    20.00000     0.00000     0.00000    37.03862
    20.10000     0.00000     0.00000    37.03862
    20.20000     0.00000     0.00000    37.03862
    20.30000     0.00000     0.00000    37.03862
    20.40000     0.00000     0.00000    37.03862
    20.50000     0.00000     0.00000    37.03862
    20.60000     0.00000     0.00000    37.03862
    20.70000     0.00000     0.00000    37.03862
    20.80000     0.00000     0.00000    37.03862
    20.90000     0.00000     0.00000    37.03862
    21.00000     0.00000     0.00000    37.03862
    21.10000     0.00000     0.00000    37.03862
    21.20000     0.00000     0.00000    37.03862
    21.30000     0.00000     0.00000    37.03862
    21.40000     0.00000     0.00000    37.03862
    21.50000     0.00000     0.00000    37.03862
    21.60000     0.00000     0.00000    37.03862
    21.70000     0.00000     0.00000    37.03862
    21.80000     0.00000     0.00000    37.03862
    21.90000     0.00000     0.00000    37.03862
    22.00000     0.00000     0.00000    37.03862
    22.10000     0.00000     0.00000    37.03862
    22.20000     0.00000     0.00000    37.03862
    22.30000     0.00000     0.00000    37.03862
    22.40000     0.00000     0.00000    37.03862
    22.50000     0.00000     0.00000    37.03862
    22.60000     0.00000     0.00000    37.03862
    22.70000     0.00000     0.00000    37.03862
    22.80000     0.00000     0.00000    37.03862
    22.90000     0.00000     0.00000    37.03862
    23.00000     0.00000     0.00000    37.03862
    23.10000     0.00000     0.00000    37.03862
    23.20000     0.00000     0.00000    37.03862
    23.30000     0.00000     0.00000    37.03862
    23.40000     0.00000     0.00000    37.03862
    23.50000     0.00000     0.00000    37.03862
    23.60000     0.00000     0.00000    37.03862
    23.70000     0.00000     0.00000    37.03862
    23.80000     0.00000     0.00000    37.03862
    23.90000     0.00000     0.00000    37.03862
    24.00000     0.00000     0.00000    37.03862
    24.10000     0.00000     0.00000    37.03862
    24.20000     0.00000     0.00000    37.03862
    24.30000     0.00000     0.00000    37.03862
    24.40000     0.00000     0.00000    37.03862
    24.50000     0.00000     0.00000    37.03862
    24.60000     0.00000     0.00000    37.03862
    24.70000     0.00000     0.00000    37.03862
    24.80000     0.00000     0.00000    37.03862
    24.90000     0.00000     0.00000    37.03862
    25.00000     0.00000     0.00000    37.03862
    25.10000     0.00000     0.00000    37.03862
    25.20000     0.00000     0.00000    37.03862
    25.30000     0.00000     0.00000    37.03862
    25.40000     0.00000     0.00000    37.03862
    25.50000     0.00000     0.00000    37.03862
    25.60000     0.00000     0.00000    37.03862
    25.70000     0.00000     0.00000    37.03862
    25.80000     0.00000     0.00000    37.03862
    25.90000     0.00000     0.00000    37.03862
    26.00000     0.00000     0.00000    37.03862
    26.10000     0.00000     0.00000    37.03862
    26.20000     0.00000     0.00000    37.03862
    26.30000     0.00000     0.00000    37.03862
    26.40000     0.00000     0.00000    37.03862
    26.50000     0.00000     0.00000    37.03862
    26.60000     0.00000     0.00000    37.03862
    26.70000     0.00000     0.00000    37.03862
    26.80000     0.00000     0.00000    37.03862
    26.90000     0.00000     0.00000    37.03862
    27.00000     0.00000     0.00000    37.03862
    27.10000     0.00000     0.00000    37.03862
    27.20000     0.00000     0.00000    37.03862
    27.30000     0.00000     0.00000    37.03862
    27.40000     0.00000     0.00000    37.03862
    27.50000     0.00000     0.00000    37.03862
    27.60000     0.00000     0.00000    37.03862
    27.70000     0.00000     0.00000    37.03862
    27.80000     0.00000     0.00000    37.03862
    27.90000     0.00000     0.00000    37.03862
    28.00000     0.00000     0.00000    37.03862
    28.10000     0.00000     0.00000    37.03862
    28.20000     0.00000     0.00000    37.03862
    28.30000     0.00000     0.00000    37.03862
    28.40000     0.00000     0.00000    37.03862
    28.50000     0.00000     0.00000    37.03862
    28.60000     0.00000     0.00000    37.03862
    28.70000     0.00000     0.00000    37.03862
    28.80000     0.00000     0.00000    37.03862
    28.90000     0.00000     0.00000    37.03862
    29.00000     0.00000     0.00000    37.03862
    29.10000     0.00000     0.00000    37.03862
    29.20000     0.00000     0.00000    37.03862
    29.30000     0.00000     0.00000    37.03862
    29.40000     0.00000     0.00000    37.03862
    29.50000     0.00000     0.00000    37.03862
    29.60000     0.00000     0.00000    37.03862
    29.70000     0.00000     0.00000    37.03862
    29.80000     0.00000     0.00000    37.03862
    29.90000     0.00000     0.00000    37.03862
    30.00000     0.00000     0.00000    37.03862
    30.10000     0.00000     0.00000    37.03862
    30.20000     0.00000     0.00000    37.03862
    30.30000     0.00000     0.00000    37.03862
    30.40000     0.00000     0.00000    37.03862
    30.50000     0.00000     0.00000    37.03862
    30.60000     0.00000     0.00000    37.03862
    30.70000     0.00000     0.00000    37.03862
    30.80000     0.00000     0.00000    37.03862
    30.90000     0.00000     0.00000    37.03862
    31.00000     0.00000     0.00000    37.03862
    31.10000     0.00000     0.00000    37.03862
    31.20000     0.00000     0.00000    37.03862
    31.30000     0.00000     0.00000    37.03862
    31.40000     0.00000     0.00000    37.03862
    31.50000     0.00000     0.00000    37.03862
    31.60000     0.00000     0.00000    37.03862
    31.70000     0.00000     0.00000    37.03862
    31.80000     0.00000     0.00000    37.03862
    31.90000     0.00000     0.00000    37.03862
    32.00000     0.00000     0.00000    37.03862
    32.10000     0.00000     0.00000    37.03862
    32.20000     0.00000     0.00000    37.03862
    32.30000     0.00000     0.00000    37.03862
    32.40000     0.00000     0.00000    37.03862
    32.50000     0.00000     0.00000    37.03862
    32.60000     0.00000     0.00000    37.03862
    32.70000     0.00000     0.00000    37.03862
    32.80000     0.00000     0.00000    37.03862
    32.90000     0.00000     0.00000    37.03862
    33.00000     0.00000     0.00000    37.03862
    33.10000     0.00000     0.00000    37.03862
    33.20000     0.00000     0.00000    37.03862
    33.30000     0.00000     0.00000    37.03862
    33.40000     0.00000     0.00000    37.03862
    33.50000     0.00000     0.00000    37.03862
    33.60000     0.00000     0.00000    37.03862
    33.70000     0.00000     0.00000    37.03862
    33.80000     0.00000     0.00000    37.03862
    33.90000     0.00000     0.00000    37.03862
    34.00000     0.00000     0.00000    37.03862
    34.10000     0.00000     0.00000    37.03862
    34.20000     0.00000     0.00000    37.03862
    34.30000     0.00000     0.00000    37.03862
    34.40000     0.00000     0.00000    37.03862
    34.50000     0.00000     0.00000    37.03862
    34.60000     0.00000     0.00000    37.03862
    34.70000     0.00000     0.00000    37.03862
    34.80000     0.00000     0.00000    37.03862
    34.90000     0.00000     0.00000    37.03862
    35.00000     0.00000     0.00000    37.03862
    35.10000     0.00000     0.00000    37.03862
    35.20000     0.00000     0.00000    37.03862
    35.30000     0.00000     0.00000    37.03862
    35.40000     0.00000     0.00000    37.03862
    35.50000     0.00000     0.00000    37.03862
    35.60000     0.00000     0.00000    37.03862
    35.70000     0.00000     0.00000    37.03862
    35.80000     0.00000     0.00000    37.03862
    35.90000     0.00000     0.00000    37.03862
    36.00000     0.00000     0.00000    37.03862
    36.10000     0.00000     0.00000    37.03862
    36.20000     0.00000     0.00000    37.03862
    36.30000     0.00000     0.00000    37.03862
    36.40000     0.00000     0.00000    37.03862
    36.50000     0.00000     0.00000    37.03862
    36.60000     0.00000     0.00000    37.03862
    36.70000     0.00000     0.00000    37.03862
    36.80000     0.00000     0.00000    37.03862
    36.90000     0.00000     0.00000    37.03862
    37.00000     0.00000     0.00000    37.03862
    37.10000     0.00000     0.00000    37.03862
    37.20000     0.00000     0.00000    37.03862
    37.30000     0.00000     0.00000    37.03862
    37.40000     0.00000     0.00000    37.03862
    37.50000     0.00000     0.00000    37.03862
    37.60000     0.00000     0.00000    37.03862
    37.70000     0.00000     0.00000    37.03862
    37.80000     0.00000     0.00000    37.03862
    37.90000     0.00000     0.00000    37.03862
    38.00000     0.00000     0.00000    37.03862
    38.10000     0.00000     0.00000    37.03862
    38.20000     0.00000     0.00000    37.03862
    38.30000     0.00000     0.00000    37.03862
    38.40000     0.00000     0.00000    37.03862
    38.50000     0.00000     0.00000    37.03862
    38.60000     0.00000     0.00000    37.03862
    38.70000     0.00000     0.00000    37.03862
    38.80000     0.00000     0.00000    37.03862
    38.90000     0.00000     0.00000    37.03862
    39.00000     0.00000     0.00000    37.03862
    39.10000     0.00000     0.00000    37.03862
    39.20000     0.00000     0.00000    37.03862
    39.30000     0.00000     0.00000    37.03862
    39.40000     0.00000     0.00000    37.03862
    39.50000     0.00000     0.00000    37.03862
    39.60000     0.00000     0.00000    37.03862
    39.70000     0.00000     0.00000    37.03862
    39.80000     0.00000     0.00000    37.03862
    39.90000     0.00000     0.00000    37.03862
    40.00000     0.00000     0.00000    37.03862
