 # applied field (T), magnetization (2 f.u.), magnetization (T)
 # T=0 1st order approx.
 # K1(0) (K, MJ/m^3)   46.8508835692452        3.71096931396659     
 # K2(0) (K, MJ/m^3)  -13.9981912906353       -1.10877008869651     
 # from A20
 # K1(0) from A20 (K, MJ/m^3)   123.411802662648        4.88760699662688     
  0.000000000000000E+000  2.248769163290604E-015  7.517590531332835E-017
  0.100000000000000       0.806602866908411       2.696457321543674E-002
  0.200000000000000        1.61282706323456       5.391648754871620E-002
  0.300000000000000        2.41828665976173       8.084284146297659E-002
  0.400000000000000        3.22259569763060       0.107730732430410     
  0.500000000000000        4.02536844424864       0.134567265487262     
  0.600000000000000        4.82621965981035       0.161339562143551     
  0.700000000000000        5.66098089406142       0.189245463971851     
  0.800000000000000        6.45670529824532       0.215846372344723     
  0.900000000000000        7.28526961335676       0.243545112400227     
   1.00000000000000        8.11002291553937       0.271116451052439     
   1.10000000000000        8.96608452067509       0.299734420037698     
   1.20000000000000        9.78170695599205       0.327000515628894     
   1.30000000000000        10.6623932191808       0.356441682029161     
   1.40000000000000        11.5016723741971       0.384498617048950     
   1.50000000000000        12.3689251240082       0.413490703772128     
   1.60000000000000        13.2627291088709       0.443370392995715     
   1.70000000000000        14.1476635113621       0.472953573846897     
   1.80000000000000        15.0565972413355       0.503339047436630     
   1.90000000000000        15.9877068239382       0.534465855363705     
   2.00000000000000        16.9389834947476       0.566266845033493     
   2.10000000000000        17.9082230701888       0.598668331028025     
   2.20000000000000        18.8930157253147       0.631589753379207     
   2.30000000000000        19.9215830633765       0.665974554663735     
   2.40000000000000        20.9588746014964       0.700651004218882     
   2.50000000000000        22.0310341242883       0.736493083558073     
   2.60000000000000        23.1606040328136       0.774254380659738     
   2.70000000000000        24.3104585616302       0.812693788578304     
   2.80000000000000        25.5522007776196       0.854204983580721     
   2.90000000000000        26.8409360856136       0.897287148290743     
   3.00000000000000        28.2284475232355       0.943671379344139     
   3.10000000000000        29.7204237693587       0.993547848142816     
   3.20000000000000        31.3737717232938        1.04881894099840     
   3.30000000000000        33.2551457798880        1.11171290105721     
   3.40000000000000        35.5335579593528        1.18787976649819     
   3.50000000000000        36.7269826685303        1.22777571686974     
   3.60000000000000        36.7272158724768        1.22778351283123     
   3.70000000000000        36.7274490611783        1.22779130828309     
   3.80000000000000        36.7276822346790        1.22779910322678     
   3.90000000000000        36.7279153930214        1.22780689766373     
   4.00000000000000        36.7281485362462        1.22781469159531     
   4.10000000000000        36.7283816643925        1.22782248502282     
   4.20000000000000        36.7286147774974        1.22783027794749     
   4.30000000000000        36.7288478755955        1.22783807037049     
   4.40000000000000        36.7290809587149        1.22784586229276     
   4.50000000000000        36.7293140268535        1.22785365371422     
   4.60000000000000        36.7295470772581        1.22786144454284     
   4.70000000000000        36.7297800627200        1.22786923320044     
   4.80000000000000        36.7300130309014        1.22787702128034     
   4.90000000000000        36.7302459842059        1.22788480886292     
   5.00000000000000        36.7304789226970        1.22789259595029     
   5.10000000000000        36.7307118464076        1.22790038254356     
   5.20000000000000        36.7309447553632        1.22790816864356     
   5.30000000000000        36.7311776495840        1.22791595425098     
   5.40000000000000        36.7314105290855        1.22792373936634     
   5.50000000000000        36.7316433938763        1.22793152398993     
   5.60000000000000        36.7318762439575        1.22793930812177     
   5.70000000000000        36.7321090793202        1.22794709176158     
   5.80000000000000        36.7323418999431        1.22795487490864     
   5.90000000000000        36.7325747057903        1.22796265756176     
   6.00000000000000        36.7328074968088        1.22797043971914     
   6.10000000000000        36.7330402729255        1.22797822137837     
   6.20000000000000        36.7332730340462        1.22798600253628     
   6.30000000000000        36.7335057800541        1.22799378318898     
   6.40000000000000        36.7337385108107        1.22800156333183     
   6.50000000000000        36.7339712261575        1.22800934295953     
   6.60000000000000        36.7342039259200        1.22801712206625     
   6.70000000000000        36.7344366099135        1.22802490064582     
   6.80000000000000        36.7346692779498        1.22803267869194     
   6.90000000000000        36.7349019298456        1.22804045619848     
   7.00000000000000        36.7351345654297        1.22804823315973     
   7.10000000000000        36.7353671845502        1.22805600957061     
   7.20000000000000        36.7355997870798        1.22806378542685     
   7.30000000000000        36.7358323729185        1.22807156072512     
   7.40000000000000        36.7360649419952        1.22807933546304     
   7.50000000000000        36.7362974942659        1.22808710963914     
   7.60000000000000        36.7365300297115        1.22809488325278     
   7.70000000000000        36.7367625483335        1.22810265630402     
   7.80000000000000        36.7369950501502        1.22811042879345     
   7.90000000000000        36.7372275351917        1.22811820072209     
   8.00000000000000        36.7374600034965        1.22812597209122     
   8.10000000000000        36.7376924551077        1.22813374290230     
   8.20000000000000        36.7379248900703        1.22814151315681     
   8.30000000000000        36.7381573084290        1.22814928285626     
   8.40000000000000        36.7383897102268        1.22815705200208     
   8.50000000000000        36.7386220955039        1.22816482059561     
   8.60000000000000        36.7388566941358        1.22817266318116     
   8.70000000000000        36.7390891021822        1.22818043253587     
   8.80000000000000        36.7393214937828        1.22818820134080     
   8.90000000000000        36.7395538689615        1.22819596959675     
   9.00000000000000        36.7397862277393        1.22820373730442     
   9.10000000000000        36.7400185701343        1.22821150446442     
   9.20000000000000        36.7402508961624        1.22821927107727     
   9.30000000000000        36.7404832058374        1.22822703714345     
   9.40000000000000        36.7407154991718        1.22823480266335     
   9.50000000000000        36.7409477761761        1.22824256763735     
   9.60000000000000        36.7411800368599        1.22825033206576     
   9.70000000000000        36.7414122812310        1.22825809594884     
   9.80000000000000        36.7416445092959        1.22826585928680     
   9.90000000000000        36.7418767210591        1.22827362207980     
   10.0000000000000        36.7421089165224        1.22828138432791     
   10.1000000000000        36.7423410956852        1.22828914603108     
   10.2000000000000        36.7425732585429        1.22829690718918     
   10.3000000000000        36.7428054050871        1.22830466780193     
   10.4000000000000        36.7430375353049        1.22831242786888     
   10.5000000000000        36.7432696491783        1.22832018738944     
   10.6000000000000        36.7435017466848        1.22832794636287     
   10.7000000000000        36.7437338277970        1.22833570478823     
   10.8000000000000        36.7439658924833        1.22834346266448     
   10.9000000000000        36.7441979407084        1.22835121999044     
   11.0000000000000        36.7444299724342        1.22835897676483     
   11.1000000000000        36.7446619876204        1.22836673298630     
   11.2000000000000        36.7448939862254        1.22837448865346     
   11.3000000000000        36.7451259682069        1.22838224376491     
   11.4000000000000        36.7453579335228        1.22838999831923     
   11.5000000000000        36.7455898821317        1.22839775231503     
   11.6000000000000        36.7458218139931        1.22840550575097     
   11.7000000000000        36.7460537290680        1.22841325862574     
   11.8000000000000        36.7462856273190        1.22842101093809     
   11.9000000000000        36.7465175087103        1.22842876268683     
   12.0000000000000        36.7467493732083        1.22843651387082     
   12.1000000000000        36.7469812207811        1.22844426448901     
   12.2000000000000        36.7472130513987        1.22845201454039     
   12.3000000000000        36.7474448650330        1.22845976402402     
   12.4000000000000        36.7476766616578        1.22846751293903     
   12.5000000000000        36.7479084412488        1.22847526128460     
   12.6000000000000        36.7481402037834        1.22848300905998     
   12.7000000000000        36.7483719492408        1.22849075626447     
   12.8000000000000        36.7486036776017        1.22849850289743     
   12.9000000000000        36.7488353888487        1.22850624895828     
   13.0000000000000        36.7490670829659        1.22851399444648     
   13.1000000000000        36.7492987599391        1.22852173936155     
   13.2000000000000        36.7495304197557        1.22852948370309     
   13.3000000000000        36.7497620624044        1.22853722747071     
   13.4000000000000        36.7499936878758        1.22854497066409     
   13.5000000000000        36.7502253469049        1.22855271497930     
   13.6000000000000        36.7504569376591        1.22856045701210     
   13.7000000000000        36.7506885112147        1.22856819846995     
   13.8000000000000        36.7509200675687        1.22857593935275     
   13.9000000000000        36.7511516067195        1.22858367966045     
   14.0000000000000        36.7513831286675        1.22859141939306     
   14.1000000000000        36.7516146334145        1.22859915855066     
   14.2000000000000        36.7518461209643        1.22860689713335     
   14.3000000000000        36.7520775913222        1.22861463514132     
   14.4000000000000        36.7523090444954        1.22862237257481     
   14.5000000000000        36.7525404804927        1.22863010943411     
   14.6000000000000        36.7527718993247        1.22863784571958     
   14.7000000000000        36.7530033010039        1.22864558143163     
   14.8000000000000        36.7532346855442        1.22865331657074     
   14.9000000000000        36.7534660529613        1.22866105113742     
   15.0000000000000        36.7536974032725        1.22866878513225     
   15.1000000000000        36.7539287364962        1.22867651855585     
   15.2000000000000        36.7541600526521        1.22868425140888     
   15.3000000000000        36.7543913517607        1.22869198369202     
   15.4000000000000        36.7546226338430        1.22869971540597     
   15.5000000000000        36.7548538989201        1.22870744655145     
   15.6000000000000        36.7550851470124        1.22871517712912     
   15.7000000000000        36.7553163781391        1.22872290713964     
   15.8000000000000        36.7555475923172        1.22873063658357     
   15.9000000000000        36.7557787895604        1.22873836546137     
   16.0000000000000        36.7560099698780        1.22874609377335     
   16.1000000000000        36.7562411332735        1.22875382151963     
   16.2000000000000        36.7564722797426        1.22876154870006     
   16.3000000000000        36.7567034092720        1.22876927531420     
   16.4000000000000        36.7569345218368        1.22877700136122     
   16.5000000000000        36.7571656173993        1.22878472683986     
   16.6000000000000        36.7573966959059        1.22879245174832     
   16.7000000000000        36.7576277572862        1.22880017608425     
   16.8000000000000        36.7578588014506        1.22880789984465     
   16.9000000000000        36.7580898282896        1.22881562302587     
   17.0000000000000        36.7583208376724        1.22882334562354     
   17.1000000000000        36.7585518294476        1.22883106763258     
   17.2000000000000        36.7587828034439        1.22883878904729     
   17.3000000000000        36.7590137594724        1.22884650986132     
   17.4000000000000        36.7592446973293        1.22885423006789     
   17.5000000000000        36.7594756168006        1.22886194965983     
   17.6000000000000        36.7597065176674        1.22886966862983     
   17.7000000000000        36.7599373997113        1.22887738697058     
   17.8000000000000        36.7601682627212        1.22888510467503     
   17.9000000000000        36.7603991064993        1.22889282173656     
   18.0000000000000        36.7606306290395        1.22890056148897     
   18.1000000000000        36.7608614266862        1.22890827700834     
   18.2000000000000        36.7610922046260        1.22891599186891     
   18.3000000000000        36.7613229627649        1.22892370606754     
   18.4000000000000        36.7615537010408        1.22893141960216     
   18.5000000000000        36.7617844194239        1.22893913247176     
   18.6000000000000        36.7620151179153        1.22894684467639     
   18.7000000000000        36.7622457965444        1.22895455621702     
   18.8000000000000        36.7624764553661        1.22896226709550     
   18.9000000000000        36.7627070944572        1.22896997731438     
   19.0000000000000        36.7629377139127        1.22897768687686     
   19.1000000000000        36.7631683138420        1.22898539578657     
   19.2000000000000        36.7633988943652        1.22899310404754     
   19.3000000000000        36.7636294556102        1.22900081166405     
   19.4000000000000        36.7638599977097        1.22900851864053     
   19.5000000000000        36.7640905207986        1.22901622498148     
   19.6000000000000        36.7643210250120        1.22902393069144     
   19.7000000000000        36.7645515104837        1.22903163577486     
   19.8000000000000        36.7647819773446        1.22903934023612     
   19.9000000000000        36.7650124257219        1.22904704407948     
   20.0000000000000        36.7652428557380        1.22905474730903     
   20.1000000000000        36.7654732675102        1.22906244992870     
   20.2000000000000        36.7657036611501        1.22907015194220     
   20.3000000000000        36.7659340367632        1.22907785335307     
   20.4000000000000        36.7661643944488        1.22908555416462     
   20.5000000000000        36.7663947342996        1.22909325437997     
   20.6000000000000        36.7666250564018        1.22910095400198     
   20.7000000000000        36.7668553608348        1.22910865303331     
   20.8000000000000        36.7670856476712        1.22911635147639     
   20.9000000000000        36.7673159169766        1.22912404933341     
   21.0000000000000        36.7675461688100        1.22913174660635     
   21.1000000000000        36.7677764032235        1.22913944329695     
   21.2000000000000        36.7680066202625        1.22914713940672     
   21.3000000000000        36.7682368199659        1.22915483493696     
   21.4000000000000        36.7684670023664        1.22916252988877     
   21.5000000000000        36.7686971674905        1.22917022426304     
   21.6000000000000        36.7689273153593        1.22917791806046     
   21.7000000000000        36.7691574459883        1.22918561128156     
   21.8000000000000        36.7693875593886        1.22919330392670     
   21.9000000000000        36.7696176555665        1.22920099599611     
   22.0000000000000        36.7698477345248        1.22920868748987     
   22.1000000000000        36.7700777962627        1.22921637840795     
   22.2000000000000        36.7703078407765        1.22922406875024     
   22.3000000000000        36.7705378680601        1.22923175851653     
   22.4000000000000        36.7707678781055        1.22923944770654     
   22.5000000000000        36.7709978709030        1.22924713631996     
   22.6000000000000        36.7712278464417        1.22925482435642     
   22.7000000000000        36.7714578047099        1.22926251181553     
   22.8000000000000        36.7716877456952        1.22927019869688     
   22.9000000000000        36.7719176693851        1.22927788500005     
   23.0000000000000        36.7721475757669        1.22928557072461     
   23.1000000000000        36.7723774648279        1.22929325587014     
   23.2000000000000        36.7726073365557        1.22930094043622     
   23.3000000000000        36.7728371909385        1.22930862442247     
   23.4000000000000        36.7730670279646        1.22931630782848     
   23.5000000000000        36.7732968476230        1.22932399065389     
   23.6000000000000        36.7735266499034        1.22933167289836     
   23.7000000000000        36.7737564347959        1.22933935456156     
   23.8000000000000        36.7739862022913        1.22934703564318     
   23.9000000000000        36.7742159523813        1.22935471614293     
   24.0000000000000        36.7744456850578        1.22936239606056     
   24.1000000000000        36.7746754003137        1.22937007539582     
   24.2000000000000        36.7749050981423        1.22937775414849     
   24.3000000000000        36.7751347785375        1.22938543231836     
   24.4000000000000        36.7753644414938        1.22939310990526     
   24.5000000000000        36.7755940870062        1.22940078690901     
   24.6000000000000        36.7758237150700        1.22940846332945     
   24.7000000000000        36.7760533256809        1.22941613916645     
   24.8000000000000        36.7762829188349        1.22942381441987     
   24.9000000000000        36.7765124945283        1.22943148908958     
   25.0000000000000        36.7767420527571        1.22943916317545     
   25.1000000000000        36.7769715935175        1.22944683667736     
   25.2000000000000        36.7772011168051        1.22945450959516     
   25.3000000000000        36.7774306226152        1.22946218192869     
   25.4000000000000        36.7776601109416        1.22946985367774     
   25.5000000000000        36.7778895817769        1.22947752484207     
   25.6000000000000        36.7781190351110        1.22948519542134     
   25.7000000000000        36.7783484709302        1.22949286541508     
   25.8000000000000        36.7785778892151        1.22950053482266     
   25.9000000000000        36.7788072899378        1.22950820364314     
   26.0000000000000        36.7790366730566        1.22951587187512     
   26.1000000000000        36.7792682157568        1.22952361230148     
   26.2000000000000        36.7794975381966        1.22953127850497     
   26.3000000000000        36.7797268425645        1.22953894410433     
   26.4000000000000        36.7799561285691        1.22954660908981     
   26.5000000000000        36.7801853956572        1.22955427344290     
   26.6000000000000        36.7804146426988        1.22956193712585     
   26.7000000000000        36.7806438672117        1.22956960005567     
   26.8000000000000        36.7808730637480        1.22957726205024     
