 # applied field (T), magnetization (2 f.u.), magnetization (T)
  0.000000000000000E+000  3.273060702161838E-015  1.101657725548994E-016
  0.100000000000000       0.269729489372936       9.078645427498930E-003
  0.200000000000000       0.539450084958616       1.815699150492981E-002
  0.300000000000000       0.854007370008451       2.874446588247445E-002
  0.400000000000000        1.12367819584421       3.782113679300542E-002
  0.500000000000000        1.39331196816988       4.689656054409243E-002
  0.600000000000000        1.66289979430622       5.597043782296152E-002
  0.700000000000000        1.93243278210040       6.504246933455687E-002
  0.800000000000000        2.24671320753688       7.562062507857449E-002
  0.900000000000000        2.51609690149595       8.468763160830127E-002
   1.00000000000000        2.78539760601592       9.375184485171172E-002
   1.10000000000000        3.05460643218348       0.102812965622786     
   1.20000000000000        3.36846197990176       0.113376820690365     
   1.30000000000000        3.63744128359883       0.122430216117311     
   1.40000000000000        3.90630057066555       0.131479571984344     
   1.50000000000000        4.17503095697259       0.140524589266467     
   1.60000000000000        4.48828170932076       0.151068087929063     
   1.70000000000000        4.75670238796705       0.160102680967086     
   1.80000000000000        5.02496604493977       0.169131988917068     
   1.90000000000000        5.33763690711192       0.179655969442040     
   2.00000000000000        5.60552995363957       0.188672803261624     
   2.10000000000000        5.91774426464732       0.199181417034704     
   2.20000000000000        6.18522505307526       0.208184374933192     
   2.30000000000000        6.45250149560103       0.217180454888913     
   2.40000000000000        6.76396114919501       0.227663668150188     
   2.50000000000000        7.03076449348347       0.236643824407099     
   2.60000000000000        7.34164808844610       0.247107648494163     
   2.70000000000000        7.60793673235895       0.256070480793570     
   2.80000000000000        7.91819575892785       0.266513282948604     
   2.90000000000000        8.22809844190126       0.276944091171639     
   3.00000000000000        8.49351409086589       0.285877539914901     
   3.10000000000000        8.80271762345250       0.296284815900223     
   3.20000000000000        9.11152467329756       0.306678746936732     
   3.30000000000000        9.37596898634955       0.315579502130756     
   3.40000000000000        9.68400235691687       0.325947392411197     
   3.50000000000000        9.99159913366727       0.336300587670828     
   3.60000000000000        10.2987452853838       0.346638615642251     
   3.70000000000000        10.6054267838960       0.356961004160612     
   3.80000000000000        10.9116296039192       0.367267281158183     
   3.90000000000000        11.2173397228740       0.377556974658295     
   4.00000000000000        11.5225431206870       0.387829612768624     
   4.10000000000000        11.8272257795724       0.398084723673843     
   4.20000000000000        12.1313736837946       0.408321835627638     
   4.30000000000000        12.4349728194135       0.418540476944116     
   4.40000000000000        12.7811759809533       0.430193098823935     
   4.50000000000000        13.0835521559005       0.440370577320819     
   4.60000000000000        13.4283212291878       0.451974930178269     
   4.70000000000000        13.7294101314468       0.462109081220185     
   4.80000000000000        14.0726716428454       0.473662692055027     
   4.90000000000000        14.4150991735663       0.485188232489098     
   5.00000000000000        14.7140894427521       0.495251747036657     
   5.10000000000000        15.0548967585754       0.506722753735443     
   5.20000000000000        15.3948100164177       0.518163667931478     
   5.30000000000000        15.7760516069980       0.530995624982747     
   5.40000000000000        16.1139958033392       0.542370263847767     
   5.50000000000000        16.4509806271712       0.553712611831781     
   5.60000000000000        16.8288503072082       0.566431075989461     
   5.70000000000000        17.2054500409356       0.579106795869220     
   5.80000000000000        17.5807500593287       0.591738769495261     
   5.90000000000000        17.9547205820293       0.604325994510324     
   6.00000000000000        18.3273318161227       0.616867468134512     
   6.10000000000000        18.7396568695325       0.630745642780839     
   6.20000000000000        19.1502266743439       0.644564738682389     
   6.30000000000000        19.5590003286468       0.658323379148979     
   6.40000000000000        19.9659369059868       0.672020186664310     
   6.50000000000000        20.4113463375024       0.687011926381737     
   6.60000000000000        20.8544294810596       0.701925367120490     
   6.70000000000000        21.3350307935370       0.718101606945496     
   6.80000000000000        21.8127285640683       0.734180118383910     
   6.90000000000000        22.3268352483386       0.751484093226441     
   7.00000000000000        45.3056098487844        1.52491137935987     
   7.10000000000000        45.3056564113391        1.52491294657792     
   7.20000000000000        45.3057029798017        1.52491451399482     
   7.30000000000000        45.3057495541730        1.52491608161060     
   7.40000000000000        45.3057961344542        1.52491764942529     
   7.50000000000000        45.3058427206463        1.52491921743893     
   7.60000000000000        45.3058893127502        1.52492078565156     
   7.70000000000000        45.3059359107669        1.52492235406321     
   7.80000000000000        45.3059825146976        1.52492392267390     
   7.90000000000000        45.3060291245432        1.52492549148369     
   8.00000000000000        45.3060757403048        1.52492706049259     
   8.10000000000000        45.3061223619833        1.52492862970065     
   8.20000000000000        45.3061689895797        1.52493019910790     
   8.30000000000000        45.3062156230952        1.52493176871437     
   8.40000000000000        45.3062622625307        1.52493333852010     
   8.50000000000000        45.3063089078872        1.52493490852512     
   8.60000000000000        45.3063555591658        1.52493647872947     
   8.70000000000000        45.3064022163675        1.52493804913317     
   8.80000000000000        45.3064488794932        1.52493961973628     
   8.90000000000000        45.3064955485441        1.52494119053881     
   9.00000000000000        45.3065422235211        1.52494276154081     
   9.10000000000000        45.3065889044253        1.52494433274231     
   9.20000000000000        45.3066355912576        1.52494590414333     
   9.30000000000000        45.3066822840192        1.52494747574393     
   9.40000000000000        45.3067289827110        1.52494904754413     
   9.50000000000000        45.3067756873340        1.52495061954396     
   9.60000000000000        45.3068223978893        1.52495219174346     
   9.70000000000000        45.3068691143780        1.52495376414267     
   9.80000000000000        45.3069158368009        1.52495533674162     
   9.90000000000000        45.3069625651591        1.52495690954034     
   10.0000000000000        45.3070092994538        1.52495848253887     
   10.1000000000000        45.3070560396858        1.52496005573725     
   10.2000000000000        45.3071027858562        1.52496162913550     
   10.3000000000000        45.3071495379661        1.52496320273366     
   10.4000000000000        45.3071962960164        1.52496477653176     
   10.5000000000000        45.3072430600082        1.52496635052985     
   10.6000000000000        45.3072898299425        1.52496792472795     
   10.7000000000000        45.3073366058204        1.52496949912611     
   10.8000000000000        45.3073833876428        1.52497107372434     
   10.9000000000000        45.3074301754108        1.52497264852270     
   11.0000000000000        45.3074769691254        1.52497422352120     
   11.1000000000000        45.3075237687877        1.52497579871990     
   11.2000000000000        45.3075705743986        1.52497737411882     
   11.3000000000000        45.3076173859592        1.52497894971799     
   11.4000000000000        45.3076642034705        1.52498052551745     
   11.5000000000000        45.3077110269335        1.52498210151724     
   11.6000000000000        45.3077578563493        1.52498367771739     
   11.7000000000000        45.3078046917189        1.52498525411794     
   11.8000000000000        45.3078515330434        1.52498683071891     
   11.9000000000000        45.3078983803237        1.52498840752035     
   12.0000000000000        45.3079452335608        1.52498998452229     
   12.1000000000000        45.3079920927559        1.52499156172476     
   12.2000000000000        45.3080389579099        1.52499313912780     
   12.3000000000000        45.3080858290239        1.52499471673144     
   12.4000000000000        45.3081327060988        1.52499629453572     
   12.5000000000000        45.3081795891358        1.52499787254067     
   12.6000000000000        45.3082264781358        1.52499945074632     
   12.7000000000000        45.3082733730999        1.52500102915272     
   12.8000000000000        45.3083202740291        1.52500260775989     
   12.9000000000000        45.3083671809245        1.52500418656788     
   13.0000000000000        45.3084140937870        1.52500576557670     
   13.1000000000000        45.3084610126177        1.52500734478641     
   13.2000000000000        45.3085079374177        1.52500892419703     
   13.3000000000000        45.3085548681879        1.52501050380860     
   13.4000000000000        45.3086018049294        1.52501208362116     
   13.5000000000000        45.3086487476432        1.52501366363473     
   13.6000000000000        45.3086956963303        1.52501524384936     
   13.7000000000000        45.3087426509919        1.52501682426507     
   13.8000000000000        45.3087896116288        1.52501840488190     
   13.9000000000000        45.3088365782422        1.52501998569990     
   14.0000000000000        45.3088835508331        1.52502156671908     
   14.1000000000000        45.3089305294025        1.52502314793949     
   14.2000000000000        45.3089775139515        1.52502472936117     
   14.3000000000000        45.3090245044810        1.52502631098414     
   14.4000000000000        45.3090715009922        1.52502789280844     
   14.5000000000000        45.3091185034859        1.52502947483411     
   14.6000000000000        45.3091655119634        1.52503105706117     
   14.7000000000000        45.3092125264256        1.52503263948968     
   14.8000000000000        45.3092595468735        1.52503422211965     
   14.9000000000000        45.3093065733081        1.52503580495113     
   15.0000000000000        45.3093536057307        1.52503738798414     
   15.1000000000000        45.3094006441420        1.52503897121874     
   15.2000000000000        45.3094476885432        1.52504055465494     
   15.3000000000000        45.3094947389354        1.52504213829278     
   15.4000000000000        45.3095417953195        1.52504372213231     
   15.5000000000000        45.3095888576966        1.52504530617355     
   15.6000000000000        45.3096359260677        1.52504689041654     
   15.7000000000000        45.3096830004339        1.52504847486131     
   15.8000000000000        45.3097300807962        1.52505005950790     
   15.9000000000000        45.3097771671556        1.52505164435634     
   16.0000000000000        45.3098242595132        1.52505322940668     
   16.1000000000000        45.3098713578700        1.52505481465893     
   16.2000000000000        45.3099184622270        1.52505640011315     
   16.3000000000000        45.3099655725853        1.52505798576935     
   16.4000000000000        45.3100126889459        1.52505957162759     
   16.5000000000000        45.3100598113099        1.52506115768789     
   16.6000000000000        45.3101069396783        1.52506274395028     
   16.7000000000000        45.3101540740521        1.52506433041481     
   16.8000000000000        45.3102012144324        1.52506591708151     
   16.9000000000000        45.3102483608202        1.52506750395041     
   17.0000000000000        45.3102955132165        1.52506909102154     
   17.1000000000000        45.3103426716224        1.52507067829495     
   17.2000000000000        45.3103898360390        1.52507226577067     
   17.3000000000000        45.3104370064672        1.52507385344873     
   17.4000000000000        45.3104841829081        1.52507544132917     
   17.5000000000000        45.3105313653628        1.52507702941202     
   17.6000000000000        45.3105785538323        1.52507861769732     
   17.7000000000000        45.3106257483175        1.52508020618510     
   17.8000000000000        45.3106729488197        1.52508179487540     
   17.9000000000000        45.3107201553398        1.52508338376825     
   18.0000000000000        45.3107673678787        1.52508497286369     
   18.1000000000000        45.3108145864377        1.52508656216175     
   18.2000000000000        45.3108618110178        1.52508815166247     
   18.3000000000000        45.3109090416199        1.52508974136588     
   18.4000000000000        45.3109562782451        1.52509133127202     
   18.5000000000000        45.3110035208944        1.52509292138093     
   18.6000000000000        45.3110507695690        1.52509451169263     
   18.7000000000000        45.3110980242698        1.52509610220716     
   18.8000000000000        45.3111452849979        1.52509769292457     
   18.9000000000000        45.3111925517544        1.52509928384488     
   19.0000000000000        45.3112398245402        1.52510087496812     
   19.1000000000000        45.3112871033564        1.52510246629434     
   19.2000000000000        45.3113343882040        1.52510405782357     
   19.3000000000000        45.3113816790842        1.52510564955584     
   19.4000000000000        45.3114289759979        1.52510724149119     
   19.5000000000000        45.3114762789463        1.52510883362966     
   19.6000000000000        45.3115235879302        1.52511042597127     
   19.7000000000000        45.3115709029508        1.52511201851607     
   19.8000000000000        45.3116182240092        1.52511361126409     
   19.9000000000000        45.3116655511063        1.52511520421537     
   20.0000000000000        45.3117128842433        1.52511679736993     
   20.1000000000000        45.3117602234211        1.52511839072782     
   20.2000000000000        45.3118075686408        1.52511998428908     
   20.3000000000000        45.3118549199035        1.52512157805372     
   20.4000000000000        45.3119022772102        1.52512317202180     
   20.5000000000000        45.3119496405619        1.52512476619334     
   20.6000000000000        45.3119970099597        1.52512636056839     
   20.7000000000000        45.3120443854047        1.52512795514697     
   20.8000000000000        45.3120917668978        1.52512954992913     
   20.9000000000000        45.3121391544402        1.52513114491489     
   21.0000000000000        45.3121865480329        1.52513274010429     
   21.1000000000000        45.3122339476769        1.52513433549737     
   21.2000000000000        45.3122813533733        1.52513593109417     
   21.3000000000000        45.3123287651231        1.52513752689471     
   21.4000000000000        45.3123761829274        1.52513912289904     
   21.5000000000000        45.3124236067872        1.52514071910719     
   21.6000000000000        45.3124710367036        1.52514231551919     
   21.7000000000000        45.3125184726777        1.52514391213508     
   21.8000000000000        45.3125659147103        1.52514550895489     
   21.9000000000000        45.3126133628028        1.52514710597867     
   22.0000000000000        45.3126608169560        1.52514870320644     
   22.1000000000000        45.3127082771710        1.52515030063824     
   22.2000000000000        45.3127557434489        1.52515189827411     
   22.3000000000000        45.3128032157908        1.52515349611408     
   22.4000000000000        45.3128506941976        1.52515509415818     
   22.5000000000000        45.3128981786704        1.52515669240646     
   22.6000000000000        45.3129456692103        1.52515829085895     
   22.7000000000000        45.3129931658184        1.52515988951568     
   22.8000000000000        45.3130406684956        1.52516148837669     
   22.9000000000000        45.3130881772431        1.52516308744201     
   23.0000000000000        45.3131356920619        1.52516468671168     
   23.1000000000000        45.3131832129530        1.52516628618574     
   23.2000000000000        45.3132307399175        1.52516788586422     
   23.3000000000000        45.3132782729564        1.52516948574715     
   23.4000000000000        45.3133258120709        1.52517108583458     
   23.5000000000000        45.3133733572619        1.52517268612653     
   23.6000000000000        45.3134209085305        1.52517428662304     
   23.7000000000000        45.3134684658777        1.52517588732415     
   23.8000000000000        45.3135160293047        1.52517748822990     
   23.9000000000000        45.3135635988125        1.52517908934031     
   24.0000000000000        45.3136111744020        1.52518069065543     
   24.1000000000000        45.3136587560745        1.52518229217528     
   24.2000000000000        45.3137063438309        1.52518389389991     
   24.3000000000000        45.3137539376723        1.52518549582936     
   24.4000000000000        45.3138015375997        1.52518709796364     
   24.5000000000000        45.3138491436142        1.52518870030281     
   24.6000000000000        45.3138967557169        1.52519030284690     
   24.7000000000000        45.3139443739088        1.52519190559594     
   24.8000000000000        45.3139919981910        1.52519350854997     
   24.9000000000000        45.3140396285645        1.52519511170902     
   25.0000000000000        45.3140872650304        1.52519671507313     
   25.1000000000000        45.3141349075897        1.52519831864234     
   25.2000000000000        45.3141825562435        1.52519992241668     
   25.3000000000000        45.3142302109929        1.52520152639618     
   25.4000000000000        45.3142778718388        1.52520313058089     
   25.5000000000000        45.3143255387825        1.52520473497083     
   25.6000000000000        45.3143732118249        1.52520633956604     
   25.7000000000000        45.3144208909670        1.52520794436657     
   25.8000000000000        45.3144685762100        1.52520954937244     
   25.9000000000000        45.3145162675550        1.52521115458369     
   26.0000000000000        45.3145639650028        1.52521276000035     
   26.1000000000000        45.3146116685547        1.52521436562247     
   26.2000000000000        45.3146593782117        1.52521597145007     
   26.3000000000000        45.3147070939749        1.52521757748320     
   26.4000000000000        45.3147548158452        1.52521918372188     
   26.5000000000000        45.3148025438238        1.52522079016616     
   26.6000000000000        45.3148502779117        1.52522239681606     
   26.7000000000000        45.3148980181100        1.52522400367164     
   26.8000000000000        45.3149457644198        1.52522561073291     
   26.9000000000000        45.3149935168421        1.52522721799992     
   27.0000000000000        45.3150412753779        1.52522882547270     
   27.1000000000000        45.3150890400283        1.52523043315129     
   27.2000000000000        45.3151368107945        1.52523204103573     
