 # applied field (T), theta (degree), phi (degree), abs for RE 1-2
     0.00000    90.00000    45.42193     4.68091    90.00000    45.42193     4.68091
     0.10000    89.76392    44.57807     4.68091    89.76392    44.57807     4.68091
     0.20000    89.52782    45.42193     4.68091    89.52782    45.42193     4.68091
     0.30000    89.29168    44.57807     4.68090    89.29168    44.57807     4.68090
     0.40000    89.05549    45.42194     4.68090    89.05549    45.42194     4.68090
     0.50000    88.85808    45.42194     4.68089    88.85808    45.42194     4.68089
     0.60000    88.62173    45.42194     4.68088    88.62173    45.42194     4.68088
     0.70000    88.38528    44.57806     4.68087    88.38528    44.57806     4.68087
     0.80000    88.14870    44.57806     4.68086    88.14870    44.57806     4.68086
     0.90000    87.91197    44.57805     4.68085    87.91197    44.57805     4.68085
     1.00000    87.67508    44.57805     4.68083    87.67508    44.57805     4.68083
     1.10000    87.43800    44.57804     4.68082    87.43800    44.57804     4.68082
     1.20000    87.20072    45.42196     4.68080    87.20072    45.42196     4.68080
     1.30000    86.96322    44.57803     4.68078    86.96322    44.57803     4.68078
     1.40000    86.72547    45.42197     4.68076    86.72547    45.42197     4.68076
     1.50000    86.52663    44.57802     4.68074    86.52663    44.57802     4.68074
     1.60000    86.28840    44.57802     4.68072    86.28840    44.57802     4.68072
     1.70000    86.04987    44.57801     4.68069    86.04987    44.57801     4.68069
     1.80000    85.81103    45.42200     4.68066    85.81103    45.42200     4.68066
     1.90000    85.57186    45.42201     4.68064    85.57186    45.42201     4.68064
     2.00000    85.33235    45.00000     4.68061    85.33235    45.00000     4.68061
     2.10000    85.09246    45.00000     4.68057    85.09246    45.00000     4.68057
     2.20000    84.85218    45.00000     4.68054    84.85218    45.00000     4.68054
     2.30000    84.61149    45.00000     4.68050    84.61149    45.00000     4.68050
     2.40000    84.37038    45.00000     4.68047    84.37038    45.00000     4.68047
     2.50000    84.12882    45.00000     4.68043    84.12882    45.00000     4.68043
     2.60000    83.88679    45.00000     4.68039    83.88679    45.00000     4.68039
     2.70000    83.64428    45.00000     4.68034    83.64428    45.00000     4.68034
     2.80000    83.40127    45.00000     4.68030    83.40127    45.00000     4.68030
     2.90000    83.15774    45.00000     4.68025    83.15774    45.00000     4.68025
     3.00000    82.91366    45.00000     4.68021    82.91366    45.00000     4.68021
     3.10000    82.62872    44.56967     4.68015    82.62872    44.56967     4.68015
     3.20000    82.38340    45.43035     4.68010    82.38340    45.43035     4.68010
     3.30000    82.13748    44.56964     4.68004    82.13748    44.56964     4.68004
     3.40000    81.89094    44.56962     4.67999    81.89094    44.56962     4.67999
     3.50000    81.64376    45.43039     4.67993    81.64376    45.43039     4.67993
     3.60000    81.39591    44.56959     4.67987    81.39591    44.56959     4.67987
     3.70000    81.10645    44.56957     4.67980    81.10645    44.56957     4.67980
     3.80000    80.81605    45.00000     4.67972    80.81605    45.00000     4.67972
     3.90000    80.60706    45.00000     4.67967    80.60706    45.00000     4.67967
     4.00000    80.35625    45.00000     4.67960    80.35625    45.00000     4.67960
     4.10000    80.06323    45.00000     4.67952    80.06323    45.00000     4.67952
     4.20000    79.81075    45.00000     4.67945    79.81075    45.00000     4.67945
     4.30000    79.55747    45.00000     4.67937    79.55747    45.00000     4.67937
     4.40000    79.26148    45.00000     4.67928    79.26148    45.00000     4.67928
     4.50000    79.00637    44.56089     4.67920    79.00637    44.56089     4.67920
     4.60000    78.70823    44.56087     4.67911    78.70823    44.56087     4.67911
     4.70000    78.45124    44.56085     4.67903    78.45124    44.56085     4.67903
     4.80000    78.15083    44.56082     4.67893    78.15083    44.56082     4.67893
     4.90000    77.89185    45.43920     4.67884    77.89185    45.43920     4.67884
     5.00000    77.58909    45.00000     4.67874    77.58909    45.00000     4.67874
     5.10000    77.32803    45.00000     4.67864    77.32803    45.00000     4.67864
     5.20000    77.02277    45.00000     4.67853    77.02277    45.00000     4.67853
     5.30000    76.71614    45.00000     4.67842    76.71614    45.00000     4.67842
     5.40000    76.45170    45.00000     4.67832    76.45170    45.00000     4.67832
     5.50000    76.14240    44.55176     4.67820    76.14240    44.55176     4.67820
     5.60000    75.83166    45.44827     4.67807    75.83166    45.44827     4.67807
     5.70000    75.51943    45.44831     4.67795    75.51943    45.44831     4.67795
     5.80000    75.20568    44.55166     4.67782    75.20568    44.55166     4.67782
     5.90000    74.89041    45.00000     4.67769    74.89041    45.00000     4.67769
     6.00000    74.57352    45.00000     4.67755    74.57352    45.00000     4.67755
     6.10000    74.25502    45.00000     4.67741    74.25502    45.00000     4.67741
     6.20000    73.98021    45.00000     4.67729    73.98021    45.00000     4.67729
     6.30000    73.56745    45.45777     4.67711    73.56745    45.45777     4.67711
     6.40000    73.24371    44.54220     4.67696    73.24371    44.54220     4.67696
     6.50000    72.82599    45.00000     4.67677    72.82599    45.00000     4.67677
     6.60000    72.54466    45.00000     4.67663    72.54466    45.00000     4.67663
     6.70000    72.16874    45.00000     4.67645    72.16874    45.00000     4.67645
     6.80000    71.83740    45.00000     4.67629    71.83740    45.00000     4.67629
     6.90000    71.45696    45.46766     4.67610    71.45696    45.46766     4.67610
     7.00000    71.07412    44.53229     4.67591    71.07412    44.53229     4.67591
     7.10000    70.64096    45.00000     4.67569    70.64096    45.00000     4.67569
     7.20000    70.30100    45.00000     4.67552    70.30100    45.00000     4.67552
     7.30000    69.86212    45.00000     4.67529    69.86212    45.00000     4.67529
     7.40000    69.46880    44.52201     4.67508    69.46880    44.52201     4.67508
     7.50000    69.02371    44.52195     4.67484    69.02371    44.52195     4.67484
     7.60000    68.62488    45.00000     4.67463    68.62488    45.00000     4.67463
     7.70000    68.17342    45.00000     4.67438    68.17342    45.00000     4.67438
     7.80000    67.66821    45.00000     4.67411    67.66821    45.00000     4.67411
     7.90000    67.20944    45.48882     4.67385    67.20944    45.48882     4.67385
     8.00000    66.64493    45.00000     4.67354    66.64493    45.00000     4.67354
     8.10000    66.17840    45.00000     4.67328    66.17840    45.00000     4.67328
     8.20000    65.76028    45.00000     4.67304    65.76028    45.00000     4.67304
     8.30000    65.12970    44.49987     4.67268    65.12970    44.49987     4.67268
     8.40000    64.54581    45.00000     4.67235    64.54581    45.00000     4.67235
     8.50000    63.90298    45.00000     4.67199    63.90298    45.00000     4.67199
     8.60000    63.30767    44.48808     4.67165    63.30767    44.48808     4.67165
     8.70000    62.59794    45.00000     4.67126    62.59794    45.00000     4.67126
     8.80000    61.88053    45.52420     4.67085    61.88053    45.52420     4.67085
     8.90000    61.09988    45.00000     4.67042    61.09988    45.00000     4.67042
     9.00000    60.25401    45.00000     4.66996    60.25401    45.00000     4.66996
     9.10000    59.34109    45.00000     4.66947    59.34109    45.00000     4.66947
     9.20000    58.47484    45.00000     4.66902    58.47484    45.00000     4.66902
     9.30000    57.18888    45.00000     4.66837    57.18888    45.00000     4.66837
     9.40000    55.82320    45.00000     4.66771    55.82320    45.00000     4.66771
     9.50000    54.07249    45.00000     4.66693    54.07249    45.00000     4.66693
     9.60000    51.67073    45.00000     4.66597    51.67073    45.00000     4.66597
     9.70000    18.00192    45.00000     4.66170    18.00192    45.00000     4.66170
     9.80000    14.18797    45.00000     4.66129    14.18797    45.00000     4.66129
     9.90000    10.28404    45.00000     4.66088    10.28404    45.00000     4.66088
    10.00000     5.18667    45.00000     4.66048     5.18667    45.00000     4.66048
    10.10000     0.00000     0.00000     4.66031     0.00000     0.00000     4.66031
    10.20000     0.00000     0.00000     4.66029     0.00000     0.00000     4.66029
    10.30000     0.00000     0.00000     4.66026     0.00000     0.00000     4.66026
    10.40000     0.00000     0.00000     4.66024     0.00000     0.00000     4.66024
    10.50000     0.00000     0.00000     4.66022     0.00000     0.00000     4.66022
    10.60000     0.00000     0.00000     4.66019     0.00000     0.00000     4.66019
    10.70000     0.00000     0.00000     4.66017     0.00000     0.00000     4.66017
    10.80000     0.00000     0.00000     4.66014     0.00000     0.00000     4.66014
    10.90000     0.00000     0.00000     4.66012     0.00000     0.00000     4.66012
    11.00000     0.00000     0.00000     4.66009     0.00000     0.00000     4.66009
    11.10000     0.00000     0.00000     4.66007     0.00000     0.00000     4.66007
    11.20000     0.00000     0.00000     4.66005     0.00000     0.00000     4.66005
    11.30000     0.00000     0.00000     4.66002     0.00000     0.00000     4.66002
    11.40000     0.00000     0.00000     4.66000     0.00000     0.00000     4.66000
    11.50000     0.00000     0.00000     4.65997     0.00000     0.00000     4.65997
    11.60000     0.00000     0.00000     4.65995     0.00000     0.00000     4.65995
    11.70000     0.00000     0.00000     4.65993     0.00000     0.00000     4.65993
    11.80000     0.00000     0.00000     4.65990     0.00000     0.00000     4.65990
    11.90000     0.00000     0.00000     4.65988     0.00000     0.00000     4.65988
    12.00000     0.00000     0.00000     4.65985     0.00000     0.00000     4.65985
    12.10000     0.00000     0.00000     4.65983     0.00000     0.00000     4.65983
    12.20000     0.00000     0.00000     4.65980     0.00000     0.00000     4.65980
    12.30000     0.00000     0.00000     4.65978     0.00000     0.00000     4.65978
    12.40000     0.00000     0.00000     4.65976     0.00000     0.00000     4.65976
    12.50000     0.00000     0.00000     4.65973     0.00000     0.00000     4.65973
    12.60000     0.00000     0.00000     4.65971     0.00000     0.00000     4.65971
    12.70000     0.00000     0.00000     4.65968     0.00000     0.00000     4.65968
    12.80000     0.00000     0.00000     4.65966     0.00000     0.00000     4.65966
    12.90000     0.00000     0.00000     4.65964     0.00000     0.00000     4.65964
    13.00000     0.00000     0.00000     4.65961     0.00000     0.00000     4.65961
    13.10000     0.00000     0.00000     4.65959     0.00000     0.00000     4.65959
    13.20000     0.00000     0.00000     4.65956     0.00000     0.00000     4.65956
    13.30000     0.00000     0.00000     4.65954     0.00000     0.00000     4.65954
    13.40000     0.00000     0.00000     4.65951     0.00000     0.00000     4.65951
    13.50000     0.00000     0.00000     4.65949     0.00000     0.00000     4.65949
    13.60000     0.00000     0.00000     4.65947     0.00000     0.00000     4.65947
    13.70000     0.00000     0.00000     4.65944     0.00000     0.00000     4.65944
    13.80000     0.00000     0.00000     4.65942     0.00000     0.00000     4.65942
    13.90000     0.00000     0.00000     4.65939     0.00000     0.00000     4.65939
    14.00000     0.00000     0.00000     4.65937     0.00000     0.00000     4.65937
    14.10000     0.00000     0.00000     4.65935     0.00000     0.00000     4.65935
    14.20000     0.00000     0.00000     4.65932     0.00000     0.00000     4.65932
    14.30000     0.00000     0.00000     4.65930     0.00000     0.00000     4.65930
    14.40000     0.00000     0.00000     4.65927     0.00000     0.00000     4.65927
    14.50000     0.00000     0.00000     4.65925     0.00000     0.00000     4.65925
    14.60000     0.00000     0.00000     4.65922     0.00000     0.00000     4.65922
    14.70000     0.00000     0.00000     4.65920     0.00000     0.00000     4.65920
    14.80000     0.00000     0.00000     4.65918     0.00000     0.00000     4.65918
    14.90000     0.00000     0.00000     4.65915     0.00000     0.00000     4.65915
    15.00000     0.00000     0.00000     4.65913     0.00000     0.00000     4.65913
    15.10000     0.00000     0.00000     4.65910     0.00000     0.00000     4.65910
    15.20000     0.00000     0.00000     4.65908     0.00000     0.00000     4.65908
    15.30000     0.00000     0.00000     4.65905     0.00000     0.00000     4.65905
    15.40000     0.00000     0.00000     4.65903     0.00000     0.00000     4.65903
    15.50000     0.00000     0.00000     4.65901     0.00000     0.00000     4.65901
    15.60000     0.00000     0.00000     4.65898     0.00000     0.00000     4.65898
    15.70000     0.00000     0.00000     4.65896     0.00000     0.00000     4.65896
    15.80000     0.00000     0.00000     4.65893     0.00000     0.00000     4.65893
    15.90000     0.00000     0.00000     4.65891     0.00000     0.00000     4.65891
    16.00000     0.00000     0.00000     4.65888     0.00000     0.00000     4.65888
    16.10000     0.00000     0.00000     4.65886     0.00000     0.00000     4.65886
    16.20000     0.00000     0.00000     4.65884     0.00000     0.00000     4.65884
    16.30000     0.00000     0.00000     4.65881     0.00000     0.00000     4.65881
    16.40000     0.00000     0.00000     4.65879     0.00000     0.00000     4.65879
    16.50000     0.00000     0.00000     4.65876     0.00000     0.00000     4.65876
    16.60000     0.00000     0.00000     4.65874     0.00000     0.00000     4.65874
    16.70000     0.00000     0.00000     4.65871     0.00000     0.00000     4.65871
    16.80000     0.00000     0.00000     4.65869     0.00000     0.00000     4.65869
    16.90000     0.00000     0.00000     4.65867     0.00000     0.00000     4.65867
    17.00000     0.00000     0.00000     4.65864     0.00000     0.00000     4.65864
    17.10000     0.00000     0.00000     4.65862     0.00000     0.00000     4.65862
    17.20000     0.00000     0.00000     4.65859     0.00000     0.00000     4.65859
    17.30000     0.00000     0.00000     4.65857     0.00000     0.00000     4.65857
    17.40000     0.00000     0.00000     4.65854     0.00000     0.00000     4.65854
    17.50000     0.00000     0.00000     4.65852     0.00000     0.00000     4.65852
    17.60000     0.00000     0.00000     4.65850     0.00000     0.00000     4.65850
    17.70000     0.00000     0.00000     4.65847     0.00000     0.00000     4.65847
    17.80000     0.00000     0.00000     4.65845     0.00000     0.00000     4.65845
    17.90000     0.00000     0.00000     4.65842     0.00000     0.00000     4.65842
    18.00000     0.00000     0.00000     4.65840     0.00000     0.00000     4.65840
    18.10000     0.00000     0.00000     4.65837     0.00000     0.00000     4.65837
    18.20000     0.00000     0.00000     4.65835     0.00000     0.00000     4.65835
    18.30000     0.00000     0.00000     4.65832     0.00000     0.00000     4.65832
    18.40000     0.00000     0.00000     4.65830     0.00000     0.00000     4.65830
    18.50000     0.00000     0.00000     4.65828     0.00000     0.00000     4.65828
    18.60000     0.00000     0.00000     4.65825     0.00000     0.00000     4.65825
    18.70000     0.00000     0.00000     4.65823     0.00000     0.00000     4.65823
    18.80000     0.00000     0.00000     4.65820     0.00000     0.00000     4.65820
    18.90000     0.00000     0.00000     4.65818     0.00000     0.00000     4.65818
    19.00000     0.00000     0.00000     4.65815     0.00000     0.00000     4.65815
    19.10000     0.00000     0.00000     4.65813     0.00000     0.00000     4.65813
    19.20000     0.00000     0.00000     4.65811     0.00000     0.00000     4.65811
    19.30000     0.00000     0.00000     4.65808     0.00000     0.00000     4.65808
    19.40000     0.00000     0.00000     4.65806     0.00000     0.00000     4.65806
    19.50000     0.00000     0.00000     4.65803     0.00000     0.00000     4.65803
    19.60000     0.00000     0.00000     4.65801     0.00000     0.00000     4.65801
    19.70000     0.00000     0.00000     4.65798     0.00000     0.00000     4.65798
    19.80000     0.00000     0.00000     4.65796     0.00000     0.00000     4.65796
    19.90000     0.00000     0.00000     4.65793     0.00000     0.00000     4.65793
    20.00000     0.00000     0.00000     4.65791     0.00000     0.00000     4.65791
    20.10000     0.00000     0.00000     4.65789     0.00000     0.00000     4.65789
    20.20000     0.00000     0.00000     4.65786     0.00000     0.00000     4.65786
    20.30000     0.00000     0.00000     4.65784     0.00000     0.00000     4.65784
    20.40000     0.00000     0.00000     4.65781     0.00000     0.00000     4.65781
    20.50000     0.00000     0.00000     4.65779     0.00000     0.00000     4.65779
    20.60000     0.00000     0.00000     4.65776     0.00000     0.00000     4.65776
    20.70000     0.00000     0.00000     4.65774     0.00000     0.00000     4.65774
    20.80000     0.00000     0.00000     4.65771     0.00000     0.00000     4.65771
    20.90000     0.00000     0.00000     4.65769     0.00000     0.00000     4.65769
    21.00000     0.00000     0.00000     4.65767     0.00000     0.00000     4.65767
    21.10000     0.00000     0.00000     4.65764     0.00000     0.00000     4.65764
    21.20000     0.00000     0.00000     4.65762     0.00000     0.00000     4.65762
    21.30000     0.00000     0.00000     4.65759     0.00000     0.00000     4.65759
    21.40000     0.00000     0.00000     4.65757     0.00000     0.00000     4.65757
    21.50000     0.00000     0.00000     4.65754     0.00000     0.00000     4.65754
    21.60000     0.00000     0.00000     4.65752     0.00000     0.00000     4.65752
    21.70000     0.00000     0.00000     4.65749     0.00000     0.00000     4.65749
    21.80000     0.00000     0.00000     4.65747     0.00000     0.00000     4.65747
    21.90000     0.00000     0.00000     4.65745     0.00000     0.00000     4.65745
    22.00000     0.00000     0.00000     4.65742     0.00000     0.00000     4.65742
    22.10000     0.00000     0.00000     4.65740     0.00000     0.00000     4.65740
    22.20000     0.00000     0.00000     4.65737     0.00000     0.00000     4.65737
    22.30000     0.00000     0.00000     4.65735     0.00000     0.00000     4.65735
    22.40000     0.00000     0.00000     4.65732     0.00000     0.00000     4.65732
    22.50000     0.00000     0.00000     4.65730     0.00000     0.00000     4.65730
    22.60000     0.00000     0.00000     4.65727     0.00000     0.00000     4.65727
    22.70000     0.00000     0.00000     4.65725     0.00000     0.00000     4.65725
    22.80000     0.00000     0.00000     4.65723     0.00000     0.00000     4.65723
    22.90000     0.00000     0.00000     4.65720     0.00000     0.00000     4.65720
    23.00000     0.00000     0.00000     4.65718     0.00000     0.00000     4.65718
    23.10000     0.00000     0.00000     4.65715     0.00000     0.00000     4.65715
    23.20000     0.00000     0.00000     4.65713     0.00000     0.00000     4.65713
    23.30000     0.00000     0.00000     4.65710     0.00000     0.00000     4.65710
