 # applied field (T), theta (degree), phi (degree), abs for RE 1-2
     0.00000   180.00000   180.00000     3.69269     0.00000     0.00000     0.00000
     0.10000   179.21123   180.00000     3.69265     0.00000     0.00000     0.00000
     0.20000   178.42238   180.00000     3.69254     0.00000     0.00000     0.00000
     0.30000   177.58072   180.00000     3.69233     0.00000     0.00000     0.00000
     0.40000   176.79148   180.00000     3.69206     0.00000     0.00000     0.00000
     0.50000   176.00192   180.00000     3.69171     0.00000     0.00000     0.00000
     0.60000   175.21198   180.00000     3.69128     0.00000     0.00000     0.00000
     0.70000   174.36882   180.00000     3.69075     0.00000     0.00000     0.00000
     0.80000   173.57784   180.00000     3.69017     0.00000     0.00000     0.00000
     0.90000   172.78625   180.00000     3.68952     0.00000     0.00000     0.00000
     1.00000   171.94109   180.00000     3.68874     0.00000     0.00000     0.00000
     1.10000   171.14801   180.00000     3.68794     0.00000     0.00000     0.00000
     1.20000   170.30109   180.00000     3.68700     0.00000     0.00000     0.00000
     1.30000   169.45314   180.00000     3.68599     0.00000     0.00000     0.00000
     1.40000   168.60408   180.00000     3.68490     0.00000     0.00000     0.00000
     1.50000   167.75383   180.00000     3.68373     0.00000     0.00000     0.00000
     1.60000   166.90230   180.00000     3.68249     0.00000     0.00000     0.00000
     1.70000   166.04942   180.00000     3.68117     0.00000     0.00000     0.00000
     1.80000   165.19511   180.00000     3.67979     0.00000     0.00000     0.00000
     1.90000   164.33931   180.00000     3.67833     0.00000     0.00000     0.00000
     2.00000   163.42825   180.00000     3.67671     0.00000     0.00000     0.00000
     2.10000   162.51535   180.00000     3.67502     0.00000     0.00000     0.00000
     2.20000   161.60051   180.00000     3.67325     0.00000     0.00000     0.00000
     2.30000   160.68367   180.00000     3.67142     0.00000     0.00000     0.00000
     2.40000   159.76475   180.00000     3.66952     0.00000     0.00000     0.00000
     2.50000   158.78940   180.00000     3.66745     0.00000     0.00000     0.00000
     2.60000   157.86599   180.00000     3.66543     0.00000     0.00000     0.00000
     2.70000   156.88574   180.00000     3.66323     0.00000     0.00000     0.00000
     2.80000   155.84817   180.00000     3.66084     0.00000     0.00000     0.00000
     2.90000   154.86248   180.00000     3.65852     0.00000     0.00000     0.00000
     3.00000   153.81903   180.00000     3.65602     0.00000     0.00000     0.00000
     3.10000   152.77247   180.00000     3.65347     0.00000     0.00000     0.00000
     3.20000   151.66737   180.00000     3.65073     0.00000     0.00000     0.00000
     3.30000   150.55872   180.00000     3.64795     0.00000     0.00000     0.00000
     3.40000   149.39073   180.00000     3.64498     0.00000     0.00000     0.00000
     3.50000   148.21871   180.00000     3.64198     0.00000     0.00000     0.00000
     3.60000   147.04265   180.00000     3.63895     0.00000     0.00000     0.00000
     3.70000   145.80617   180.00000     3.63574     0.00000     0.00000     0.00000
     3.80000   144.50868   180.00000     3.63237     0.00000     0.00000     0.00000
     3.90000   143.20626   180.00000     3.62898     0.00000     0.00000     0.00000
     4.00000   141.78499   180.00000     3.62530     0.00000     0.00000     0.00000
     4.10000   140.35796   180.00000     3.62162     0.00000     0.00000     0.00000
     4.20000   138.86776   180.00000     3.61781     0.00000     0.00000     0.00000
     4.30000   137.31376   180.00000     3.61388     0.00000     0.00000     0.00000
     4.40000   135.69534   180.00000     3.60985     0.00000     0.00000     0.00000
     4.50000   133.95371   180.00000     3.60560     0.00000     0.00000     0.00000
     4.60000   132.14597   180.00000     3.60130     0.00000     0.00000     0.00000
     4.70000   130.15418   180.00000     3.59670     0.00000     0.00000     0.00000
     4.80000   128.09424   180.00000     3.59212     0.00000     0.00000     0.00000
     4.90000   125.78797   180.00000     3.58722     0.00000     0.00000     0.00000
     5.00000   123.29219   180.00000     3.58221     0.00000     0.00000     0.00000
     5.10000   120.54533   180.00000     3.57707     0.00000     0.00000     0.00000
     5.20000   117.36466   180.00000     3.57164     0.00000     0.00000     0.00000
     5.30000   113.68530   180.00000     3.56607     0.00000     0.00000     0.00000
     5.40000   109.13839   180.00000     3.56028     0.00000     0.00000     0.00000
     5.50000   102.80062   180.00000     3.55427     0.00000     0.00000     0.00000
     5.60000    90.00000   180.00000     3.54942     0.00000     0.00000     0.00000
     5.70000    90.00000   180.00000     3.54941     0.00000     0.00000     0.00000
     5.80000    90.00000   180.00000     3.54940     0.00000     0.00000     0.00000
     5.90000    90.00000   180.00000     3.54939     0.00000     0.00000     0.00000
     6.00000    90.00000   180.00000     3.54939     0.00000     0.00000     0.00000
     6.10000    90.00000   180.00000     3.54938     0.00000     0.00000     0.00000
     6.20000    90.00000   180.00000     3.54937     0.00000     0.00000     0.00000
     6.30000    90.00000   180.00000     3.54936     0.00000     0.00000     0.00000
     6.40000    90.00000   180.00000     3.54936     0.00000     0.00000     0.00000
     6.50000    90.00000   180.00000     3.54935     0.00000     0.00000     0.00000
     6.60000    90.00000   180.00000     3.54934     0.00000     0.00000     0.00000
     6.70000    90.00000   180.00000     3.54934     0.00000     0.00000     0.00000
     6.80000    90.00000   180.00000     3.54933     0.00000     0.00000     0.00000
     6.90000    90.00000   180.00000     3.54932     0.00000     0.00000     0.00000
     7.00000    90.00000   180.00000     3.54931     0.00000     0.00000     0.00000
     7.10000    90.00000   180.00000     3.54931     0.00000     0.00000     0.00000
     7.20000    90.00000   180.00000     3.54930     0.00000     0.00000     0.00000
     7.30000    90.00000   180.00000     3.54929     0.00000     0.00000     0.00000
     7.40000    90.00000   180.00000     3.54928     0.00000     0.00000     0.00000
     7.50000    90.00000   180.00000     3.54927     0.00000     0.00000     0.00000
     7.60000    90.00000   180.00000     3.54927     0.00000     0.00000     0.00000
     7.70000    90.00000   180.00000     3.54926     0.00000     0.00000     0.00000
     7.80000    90.00000   180.00000     3.54925     0.00000     0.00000     0.00000
     7.90000    90.00000   180.00000     3.54924     0.00000     0.00000     0.00000
     8.00000    90.00000   180.00000     3.54924     0.00000     0.00000     0.00000
     8.10000    90.00000   180.00000     3.54923     0.00000     0.00000     0.00000
     8.20000    90.00000   180.00000     3.54922     0.00000     0.00000     0.00000
     8.30000    90.00000   180.00000     3.54921     0.00000     0.00000     0.00000
     8.40000    90.00000   180.00000     3.54921     0.00000     0.00000     0.00000
     8.50000    90.00000   180.00000     3.54920     0.00000     0.00000     0.00000
     8.60000    90.00000   180.00000     3.54919     0.00000     0.00000     0.00000
     8.70000    90.00000   180.00000     3.54918     0.00000     0.00000     0.00000
     8.80000    90.00000   180.00000     3.54917     0.00000     0.00000     0.00000
     8.90000    90.00000   180.00000     3.54917     0.00000     0.00000     0.00000
     9.00000    90.00000   180.00000     3.54916     0.00000     0.00000     0.00000
     9.10000    90.00000   180.00000     3.54915     0.00000     0.00000     0.00000
     9.20000    90.00000   180.00000     3.54914     0.00000     0.00000     0.00000
     9.30000    90.00000   180.00000     3.54913     0.00000     0.00000     0.00000
     9.40000    90.00000   180.00000     3.54913     0.00000     0.00000     0.00000
     9.50000    90.00000   180.00000     3.54912     0.00000     0.00000     0.00000
     9.60000    90.00000   180.00000     3.54911     0.00000     0.00000     0.00000
     9.70000    90.00000   180.00000     3.54910     0.00000     0.00000     0.00000
     9.80000    90.00000   180.00000     3.54909     0.00000     0.00000     0.00000
     9.90000    90.00000   180.00000     3.54909     0.00000     0.00000     0.00000
    10.00000    90.00000   180.00000     3.54908     0.00000     0.00000     0.00000
    10.10000    90.00000   180.00000     3.54907     0.00000     0.00000     0.00000
    10.20000    90.00000   180.00000     3.54906     0.00000     0.00000     0.00000
    10.30000    90.00000   180.00000     3.54905     0.00000     0.00000     0.00000
    10.40000    90.00000   180.00000     3.54905     0.00000     0.00000     0.00000
    10.50000    90.00000   180.00000     3.54904     0.00000     0.00000     0.00000
    10.60000    90.00000   180.00000     3.54903     0.00000     0.00000     0.00000
    10.70000    90.00000   180.00000     3.54902     0.00000     0.00000     0.00000
    10.80000    90.00000   180.00000     3.54901     0.00000     0.00000     0.00000
    10.90000    90.00000   180.00000     3.54900     0.00000     0.00000     0.00000
    11.00000    90.00000   180.00000     3.54900     0.00000     0.00000     0.00000
    11.10000    90.00000   180.00000     3.54899     0.00000     0.00000     0.00000
    11.20000    90.00000   180.00000     3.54898     0.00000     0.00000     0.00000
    11.30000    90.00000   180.00000     3.54897     0.00000     0.00000     0.00000
    11.40000    90.00000   180.00000     3.54896     0.00000     0.00000     0.00000
    11.50000    90.00000   180.00000     3.54895     0.00000     0.00000     0.00000
    11.60000    90.00000   180.00000     3.54895     0.00000     0.00000     0.00000
    11.70000    90.00000   180.00000     3.54894     0.00000     0.00000     0.00000
    11.80000    90.00000   180.00000     3.54893     0.00000     0.00000     0.00000
    11.90000    90.00000   180.00000     3.54892     0.00000     0.00000     0.00000
    12.00000    90.00000   180.00000     3.54891     0.00000     0.00000     0.00000
    12.10000    90.00000   180.00000     3.54890     0.00000     0.00000     0.00000
    12.20000    90.00000   180.00000     3.54890     0.00000     0.00000     0.00000
    12.30000    90.00000   180.00000     3.54889     0.00000     0.00000     0.00000
    12.40000    90.00000   180.00000     3.54888     0.00000     0.00000     0.00000
    12.50000    90.00000   180.00000     3.54887     0.00000     0.00000     0.00000
    12.60000    90.00000   180.00000     3.54886     0.00000     0.00000     0.00000
    12.70000    90.00000   180.00000     3.54885     0.00000     0.00000     0.00000
    12.80000    90.00000   180.00000     3.54884     0.00000     0.00000     0.00000
    12.90000    90.00000   180.00000     3.54884     0.00000     0.00000     0.00000
    13.00000    90.00000   180.00000     3.54883     0.00000     0.00000     0.00000
    13.10000    90.00000   180.00000     3.54882     0.00000     0.00000     0.00000
    13.20000    90.00000   180.00000     3.54881     0.00000     0.00000     0.00000
    13.30000    90.00000   180.00000     3.54880     0.00000     0.00000     0.00000
    13.40000    90.00000   180.00000     3.54879     0.00000     0.00000     0.00000
    13.50000    90.00000   180.00000     3.54878     0.00000     0.00000     0.00000
    13.60000    90.00000   180.00000     3.54877     0.00000     0.00000     0.00000
    13.70000    90.00000   180.00000     3.54877     0.00000     0.00000     0.00000
    13.80000    90.00000   180.00000     3.54876     0.00000     0.00000     0.00000
    13.90000    90.00000   180.00000     3.54875     0.00000     0.00000     0.00000
    14.00000    90.00000   180.00000     3.54874     0.00000     0.00000     0.00000
    14.10000    90.00000   180.00000     3.54873     0.00000     0.00000     0.00000
    14.20000    90.00000   180.00000     3.54872     0.00000     0.00000     0.00000
    14.30000    90.00000   180.00000     3.54871     0.00000     0.00000     0.00000
    14.40000    90.00000   180.00000     3.54870     0.00000     0.00000     0.00000
    14.50000    90.00000   180.00000     3.54869     0.00000     0.00000     0.00000
    14.60000    90.00000   180.00000     3.54868     0.00000     0.00000     0.00000
    14.70000    90.00000   180.00000     3.54868     0.00000     0.00000     0.00000
    14.80000    90.00000   180.00000     3.54867     0.00000     0.00000     0.00000
    14.90000    90.00000   180.00000     3.54866     0.00000     0.00000     0.00000
    15.00000    90.00000   180.00000     3.54865     0.00000     0.00000     0.00000
    15.10000    90.00000   180.00000     3.54864     0.00000     0.00000     0.00000
    15.20000    90.00000   180.00000     3.54863     0.00000     0.00000     0.00000
    15.30000    90.00000   180.00000     3.54862     0.00000     0.00000     0.00000
    15.40000    90.00000   180.00000     3.54861     0.00000     0.00000     0.00000
    15.50000    90.00000   180.00000     3.54860     0.00000     0.00000     0.00000
    15.60000    90.00000   180.00000     3.54859     0.00000     0.00000     0.00000
    15.70000    90.00000   180.00000     3.54858     0.00000     0.00000     0.00000
    15.80000    90.00000   180.00000     3.54858     0.00000     0.00000     0.00000
    15.90000    90.00000   180.00000     3.54857     0.00000     0.00000     0.00000
    16.00000    90.00000   180.00000     3.54856     0.00000     0.00000     0.00000
    16.10000    90.00000   180.00000     3.54855     0.00000     0.00000     0.00000
    16.20000    90.00000   180.00000     3.54854     0.00000     0.00000     0.00000
    16.30000    90.00000   180.00000     3.54853     0.00000     0.00000     0.00000
    16.40000    90.00000   180.00000     3.54852     0.00000     0.00000     0.00000
    16.50000    90.00000   180.00000     3.54851     0.00000     0.00000     0.00000
    16.60000    90.00000   180.00000     3.54850     0.00000     0.00000     0.00000
    16.70000    90.00000   180.00000     3.54849     0.00000     0.00000     0.00000
    16.80000    90.00000   180.00000     3.54848     0.00000     0.00000     0.00000
    16.90000    90.00000   180.00000     3.54847     0.00000     0.00000     0.00000
    17.00000    90.00000   180.00000     3.54846     0.00000     0.00000     0.00000
    17.10000    90.00000   180.00000     3.54845     0.00000     0.00000     0.00000
    17.20000    90.00000   180.00000     3.54844     0.00000     0.00000     0.00000
    17.30000    90.00000   180.00000     3.54844     0.00000     0.00000     0.00000
    17.40000    90.00000   180.00000     3.54843     0.00000     0.00000     0.00000
    17.50000    90.00000   180.00000     3.54842     0.00000     0.00000     0.00000
    17.60000    90.00000   180.00000     3.54841     0.00000     0.00000     0.00000
    17.70000    90.00000   180.00000     3.54840     0.00000     0.00000     0.00000
    17.80000    90.00000   180.00000     3.54839     0.00000     0.00000     0.00000
    17.90000    90.00000   180.00000     3.54838     0.00000     0.00000     0.00000
    18.00000    90.00000   180.00000     3.54837     0.00000     0.00000     0.00000
    18.10000    90.00000   180.00000     3.54836     0.00000     0.00000     0.00000
    18.20000    90.00000   180.00000     3.54835     0.00000     0.00000     0.00000
    18.30000    90.00000   180.00000     3.54834     0.00000     0.00000     0.00000
    18.40000    90.00000   180.00000     3.54833     0.00000     0.00000     0.00000
    18.50000    90.00000   180.00000     3.54832     0.00000     0.00000     0.00000
    18.60000    90.00000   180.00000     3.54831     0.00000     0.00000     0.00000
    18.70000    90.00000   180.00000     3.54830     0.00000     0.00000     0.00000
    18.80000    90.00000   180.00000     3.54829     0.00000     0.00000     0.00000
    18.90000    90.00000   180.00000     3.54828     0.00000     0.00000     0.00000
    19.00000    90.00000   180.00000     3.54827     0.00000     0.00000     0.00000
    19.10000    90.00000   180.00000     3.54826     0.00000     0.00000     0.00000
    19.20000    90.00000   180.00000     3.54825     0.00000     0.00000     0.00000
    19.30000    90.00000   180.00000     3.54824     0.00000     0.00000     0.00000
    19.40000    90.00000   180.00000     3.54823     0.00000     0.00000     0.00000
    19.50000    90.00000   180.00000     3.54822     0.00000     0.00000     0.00000
    19.60000    90.00000   180.00000     3.54821     0.00000     0.00000     0.00000
    19.70000    90.00000   180.00000     3.54820     0.00000     0.00000     0.00000
    19.80000    90.00000   180.00000     3.54819     0.00000     0.00000     0.00000
    19.90000    90.00000   180.00000     3.54818     0.00000     0.00000     0.00000
    20.00000    90.00000   180.00000     3.54817     0.00000     0.00000     0.00000
    20.10000    90.00000   180.00000     3.54816     0.00000     0.00000     0.00000
    20.20000    90.00000   180.00000     3.54815     0.00000     0.00000     0.00000
    20.30000    90.00000   180.00000     3.54814     0.00000     0.00000     0.00000
    20.40000    90.00000   180.00000     3.54813     0.00000     0.00000     0.00000
    20.50000    90.00000   180.00000     3.54812     0.00000     0.00000     0.00000
    20.60000    90.00000   180.00000     3.54811     0.00000     0.00000     0.00000
    20.70000    90.00000   180.00000     3.54810     0.00000     0.00000     0.00000
    20.80000    90.00000   180.00000     3.54809     0.00000     0.00000     0.00000
    20.90000    90.00000   180.00000     3.54808     0.00000     0.00000     0.00000
    21.00000    90.00000   180.00000     3.54807     0.00000     0.00000     0.00000
    21.10000    90.00000   180.00000     3.54806     0.00000     0.00000     0.00000
    21.20000    90.00000   180.00000     3.54805     0.00000     0.00000     0.00000
    21.30000    90.00000   180.00000     3.54804     0.00000     0.00000     0.00000
    21.40000    90.00000   180.00000     3.54803     0.00000     0.00000     0.00000
    21.50000    90.00000   180.00000     3.54802     0.00000     0.00000     0.00000
    21.60000    90.00000   180.00000     3.54801     0.00000     0.00000     0.00000
    21.70000    90.00000   180.00000     3.54800     0.00000     0.00000     0.00000
    21.80000    90.00000   180.00000     3.54799     0.00000     0.00000     0.00000
    21.90000    90.00000   180.00000     3.54798     0.00000     0.00000     0.00000
    22.00000    90.00000   180.00000     3.54797     0.00000     0.00000     0.00000
    22.10000    90.00000   180.00000     3.54796     0.00000     0.00000     0.00000
    22.20000    90.00000   180.00000     3.54795     0.00000     0.00000     0.00000
    22.30000    90.00000   180.00000     3.54793     0.00000     0.00000     0.00000
    22.40000    90.00000   180.00000     3.54792     0.00000     0.00000     0.00000
    22.50000    90.00000   180.00000     3.54791     0.00000     0.00000     0.00000
    22.60000    90.00000   180.00000     3.54790     0.00000     0.00000     0.00000
    22.70000    90.00000   180.00000     3.54789     0.00000     0.00000     0.00000
    22.80000    90.00000   180.00000     3.54788     0.00000     0.00000     0.00000
    22.90000    90.00000   180.00000     3.54787     0.00000     0.00000     0.00000
    23.00000    90.00000   180.00000     3.54786     0.00000     0.00000     0.00000
    23.10000    90.00000   180.00000     3.54785     0.00000     0.00000     0.00000
    23.20000    90.00000   180.00000     3.54784     0.00000     0.00000     0.00000
    23.30000    90.00000   180.00000     3.54783     0.00000     0.00000     0.00000
