 # applied field (T), magnetization (2 f.u.), magnetization (T)
 # T=0 1st order approx.
 # K1(0) (K, MJ/m^3)   54.5497251852608        4.35031775189416     
 # K2(0) (K, MJ/m^3)  -16.8258583773546       -1.34185516317946     
 # from A20
 # K1(0) from A20 (K, MJ/m^3)   141.280691015994        5.63353798794956     
  0.000000000000000E+000  2.771660139029547E-015  9.328946459017190E-017
  0.100000000000000       0.269742417252249       9.079080558387615E-003
  0.200000000000000       0.539475979496618       1.815786307195637E-002
  0.300000000000000       0.854048475051356       2.874584940976575E-002
  0.400000000000000        1.12373248429134       3.782296405172836E-002
  0.500000000000000        1.39337960112985       4.689883695689472E-002
  0.600000000000000        1.66298097123592       5.597317010323014E-002
  0.700000000000000        1.97735267683344       6.655439818545825E-002
  0.800000000000000        2.24682457690277       7.562437358596520E-002
  0.900000000000000        2.51622269668726       8.469186566495218E-002
   1.00000000000000        2.78553818356647       9.375657645795726E-002
   1.10000000000000        3.09952984940680       0.104325013034844     
   1.20000000000000        3.36863596482216       0.113382676733046     
   1.30000000000000        3.63763142069874       0.122436615815455     
   1.40000000000000        3.95121441203036       0.132991297088952     
   1.50000000000000        4.21993978829137       0.142036145741268     
   1.60000000000000        4.48852648532366       0.151076326681691     
   1.70000000000000        4.80159732440489       0.161613769763335     
   1.80000000000000        5.06985325010987       0.170642817491719     
   1.90000000000000        5.33794248486193       0.179666254680222     
   2.00000000000000        5.65039772419551       0.190182977699527     
   2.10000000000000        5.91809551410150       0.199193239506390     
   2.20000000000000        6.23006998977822       0.209693780821629     
   2.30000000000000        6.49733483432852       0.218689470408810     
   2.40000000000000        6.80878014861303       0.229172201032808     
   2.50000000000000        7.07557055607653       0.238151921857735     
   2.60000000000000        7.38643832157591       0.248615213151427     
   2.70000000000000        7.69697510435496       0.259067364117943     
   2.80000000000000        7.96295464755215       0.268019792602011     
   2.90000000000000        8.27283946175075       0.278449999391843     
   3.00000000000000        8.58235323237099       0.288867717472732     
   3.10000000000000        8.84742376227419       0.297789550083119     
   3.20000000000000        9.15621116335357       0.308182819774897     
   3.30000000000000        9.46458746879893       0.318562252672238     
   3.40000000000000        9.77253866318745       0.328927377039351     
   3.50000000000000        10.0800507315143       0.339277721154512     
   3.60000000000000        10.3871096589634       0.349612813302350     
   3.70000000000000        10.6937014306591       0.359932181765490     
   3.80000000000000        10.9998120313996       0.370235354815578     
   3.90000000000000        11.3054274453726       0.380521860703716     
   4.00000000000000        11.6539999814727       0.392254231785478     
   4.10000000000000        11.9585072192548       0.402503438308493     
   4.20000000000000        12.2624752177982       0.412734494936738     
   4.30000000000000        12.6091114975929       0.424401694855735     
   4.40000000000000        12.9118769186574       0.434592274728711     
   4.50000000000000        13.2571023635231       0.446211988293484     
   4.60000000000000        13.6015453660380       0.457805366151747     
   4.70000000000000        13.9023418448144       0.467929674706214     
   4.80000000000000        14.2452611754173       0.479471768305310     
   4.90000000000000        14.5873378667180       0.490985500068756     
   5.00000000000000        14.9710742567835       0.503901427916068     
   5.10000000000000        15.3112909604107       0.515352555591889     
   5.20000000000000        15.6505995300149       0.526773116988829     
   5.30000000000000        16.0311440872358       0.539581613058002     
   5.40000000000000        16.4104833261186       0.552349540119149     
   5.50000000000000        16.7885873620498       0.565075892305949     
   5.60000000000000        17.1654262900730       0.577759663067369     
   5.70000000000000        17.5409701836125       0.590399845124711     
   5.80000000000000        17.9566284309932       0.604390209529278     
   5.90000000000000        18.3706103439454       0.618324151308607     
   6.00000000000000        18.7828747976299       0.632200286269097     
   6.10000000000000        19.2342820149724       0.647393901469251     
   6.20000000000000        19.6428060539980       0.661144140301297     
   6.30000000000000        20.1304951221994       0.677558942180621     
   6.40000000000000        20.6154572381109       0.693881959387102     
   6.50000000000000        45.2991714708324        1.52469467427994     
   6.60000000000000        45.2992177025580        1.52469623036283     
   6.70000000000000        45.2992639400261        1.52469778663901     
   6.80000000000000        45.2993101832379        1.52469934310851     
   6.90000000000000        45.2993564321945        1.52470089977137     
   7.00000000000000        45.2994026868967        1.52470245662762     
   7.10000000000000        45.2994489473459        1.52470401367730     
   7.20000000000000        45.2994952135429        1.52470557092044     
   7.30000000000000        45.2995414854889        1.52470712835709     
   7.40000000000000        45.2995877631850        1.52470868598727     
   7.50000000000000        45.2996340466322        1.52471024381103     
   7.60000000000000        45.2996803358316        1.52471180182839     
   7.70000000000000        45.2997266307842        1.52471336003940     
   7.80000000000000        45.2997729314912        1.52471491844409     
   7.90000000000000        45.2998192379535        1.52471647704250     
   8.00000000000000        45.2998655501723        1.52471803583466     
   8.10000000000000        45.2999118681487        1.52471959482061     
   8.20000000000000        45.2999581918837        1.52472115400039     
   8.30000000000000        45.3000045213783        1.52472271337402     
   8.40000000000000        45.3000508566337        1.52472427294156     
   8.50000000000000        45.3000971976509        1.52472583270302     
   8.60000000000000        45.3001435444310        1.52472739265846     
   8.70000000000000        45.3001898969750        1.52472895280790     
   8.80000000000000        45.3002362552841        1.52473051315138     
   8.90000000000000        45.3002826193593        1.52473207368894     
   9.00000000000000        45.3003289892017        1.52473363442062     
   9.10000000000000        45.3003753648123        1.52473519534644     
   9.20000000000000        45.3004217461922        1.52473675646645     
   9.30000000000000        45.3004681333425        1.52473831778068     
   9.40000000000000        45.3005145262643        1.52473987928917     
   9.50000000000000        45.3005609249586        1.52474144099195     
   9.60000000000000        45.3006073294266        1.52474300288906     
   9.70000000000000        45.3006537396692        1.52474456498054     
   9.80000000000000        45.3007001556875        1.52474612726642     
   9.90000000000000        45.3007465774827        1.52474768974674     
   10.0000000000000        45.3007930050558        1.52474925242153     
   10.1000000000000        45.3008394384079        1.52475081529084     
   10.2000000000000        45.3008858775400        1.52475237835469     
   10.3000000000000        45.3009323224532        1.52475394161312     
   10.4000000000000        45.3009787731486        1.52475550506617     
   10.5000000000000        45.3010252296273        1.52475706871388     
   10.6000000000000        45.3010716918904        1.52475863255628     
   10.7000000000000        45.3011181599388        1.52476019659341     
   10.8000000000000        45.3011646337738        1.52476176082530     
   10.9000000000000        45.3012111133963        1.52476332525199     
   11.0000000000000        45.3012575988075        1.52476488987352     
   11.1000000000000        45.3013040900084        1.52476645468992     
   11.2000000000000        45.3013505870001        1.52476801970123     
   11.3000000000000        45.3013970897836        1.52476958490748     
   11.4000000000000        45.3014435983601        1.52477115030871     
   11.5000000000000        45.3014901127307        1.52477271590496     
   11.6000000000000        45.3015366328963        1.52477428169627     
   11.7000000000000        45.3015831588581        1.52477584768266     
   11.8000000000000        45.3016296906172        1.52477741386418     
   11.9000000000000        45.3016762281746        1.52477898024086     
   12.0000000000000        45.3017227715314        1.52478054681274     
   12.1000000000000        45.3017693206886        1.52478211357986     
   12.2000000000000        45.3018158756475        1.52478368054225     
   12.3000000000000        45.3018624364090        1.52478524769994     
   12.4000000000000        45.3019090029742        1.52478681505297     
   12.5000000000000        45.3019555753441        1.52478838260139     
   12.6000000000000        45.3020021535200        1.52478995034522     
   12.7000000000000        45.3020487375028        1.52479151828451     
   12.8000000000000        45.3020953272937        1.52479308641928     
   12.9000000000000        45.3021419228936        1.52479465474958     
   13.0000000000000        45.3021885243037        1.52479622327544     
   13.1000000000000        45.3022351315251        1.52479779199689     
   13.2000000000000        45.3022817445589        1.52479936091398     
   13.3000000000000        45.3023283634061        1.52480093002674     
   13.4000000000000        45.3023749880677        1.52480249933521     
   13.5000000000000        45.3024216185450        1.52480406883942     
   13.6000000000000        45.3024682548389        1.52480563853941     
   13.7000000000000        45.3025148969506        1.52480720843522     
   13.8000000000000        45.3025615448810        1.52480877852687     
   13.9000000000000        45.3026081986314        1.52481034881442     
   14.0000000000000        45.3026548582028        1.52481191929789     
   14.1000000000000        45.3027015235962        1.52481348997732     
   14.2000000000000        45.3027481948128        1.52481506085274     
   14.3000000000000        45.3027948718536        1.52481663192420     
   14.4000000000000        45.3028415547197        1.52481820319174     
   14.5000000000000        45.3028882434122        1.52481977465537     
   14.6000000000000        45.3029349379322        1.52482134631516     
   14.7000000000000        45.3029816382807        1.52482291817112     
   14.8000000000000        45.3030283444589        1.52482449022329     
   14.9000000000000        45.3030750564677        1.52482606247172     
   15.0000000000000        45.3031217743084        1.52482763491644     
   15.1000000000000        45.3031684979820        1.52482920755748     
   15.2000000000000        45.3032152274895        1.52483078039488     
   15.3000000000000        45.3032619628321        1.52483235342869     
   15.4000000000000        45.3033087040108        1.52483392665892     
   15.5000000000000        45.3033554510267        1.52483550008563     
   15.6000000000000        45.3034022038809        1.52483707370884     
   15.7000000000000        45.3034489625745        1.52483864752860     
   15.8000000000000        45.3034957271085        1.52484022154494     
   15.9000000000000        45.3035424974841        1.52484179575790     
   16.0000000000000        45.3035892737024        1.52484337016750     
   16.1000000000000        45.3036360557643        1.52484494477380     
   16.2000000000000        45.3036828436711        1.52484651957683     
   16.3000000000000        45.3037296374237        1.52484809457662     
   16.4000000000000        45.3037764370233        1.52484966977320     
   16.5000000000000        45.3038232424710        1.52485124516662     
   16.6000000000000        45.3038700537678        1.52485282075692     
   16.7000000000000        45.3039168709149        1.52485439654412     
   16.8000000000000        45.3039636939132        1.52485597252827     
   16.9000000000000        45.3040105227640        1.52485754870940     
   17.0000000000000        45.3040573574682        1.52485912508756     
   17.1000000000000        45.3041041980270        1.52486070166276     
   17.2000000000000        45.3041510444415        1.52486227843506     
   17.3000000000000        45.3041978967127        1.52486385540448     
   17.4000000000000        45.3042447548417        1.52486543257107     
   17.5000000000000        45.3042916188297        1.52486700993486     
   17.6000000000000        45.3043384886776        1.52486858749589     
   17.7000000000000        45.3043853643867        1.52487016525420     
   17.8000000000000        45.3044322459579        1.52487174320981     
   17.9000000000000        45.3044791333924        1.52487332136277     
   18.0000000000000        45.3045260266913        1.52487489971312     
   18.1000000000000        45.3045729258556        1.52487647826089     
   18.2000000000000        45.3046198308864        1.52487805700612     
   18.3000000000000        45.3046667417849        1.52487963594884     
   18.4000000000000        45.3047136585520        1.52488121508909     
   18.5000000000000        45.3047605811890        1.52488279442691     
   18.6000000000000        45.3048075096968        1.52488437396233     
   18.7000000000000        45.3048544440766        1.52488595369539     
   18.8000000000000        45.3049013843295        1.52488753362614     
   18.9000000000000        45.3049483304565        1.52488911375459     
   19.0000000000000        45.3049952824588        1.52489069408080     
   19.1000000000000        45.3050422403374        1.52489227460479     
   19.2000000000000        45.3050892040935        1.52489385532661     
   19.3000000000000        45.3051361737280        1.52489543624629     
   19.4000000000000        45.3051831492422        1.52489701736387     
   19.5000000000000        45.3052301306370        1.52489859867938     
   19.6000000000000        45.3052771179137        1.52490018019286     
   19.7000000000000        45.3053241110732        1.52490176190435     
   19.8000000000000        45.3053711101167        1.52490334381389     
   19.9000000000000        45.3054181150452        1.52490492592151     
   20.0000000000000        45.3054651258599        1.52490650822724     
   20.1000000000000        45.3055121425618        1.52490809073113     
   20.2000000000000        45.3055591651521        1.52490967343321     
   20.3000000000000        45.3056061936318        1.52491125633352     
   20.4000000000000        45.3056532280020        1.52491283943209     
   20.5000000000000        45.3057002682638        1.52491442272897     
   20.6000000000000        45.3057473144184        1.52491600622419     
   20.7000000000000        45.3057943664667        1.52491758991778     
   20.8000000000000        45.3058414244099        1.52491917380978     
   20.9000000000000        45.3058884882491        1.52492075790023     
   21.0000000000000        45.3059355579854        1.52492234218917     
   21.1000000000000        45.3059826336198        1.52492392667663     
   21.2000000000000        45.3060297151536        1.52492551136265     
   21.3000000000000        45.3060768025876        1.52492709624726     
   21.4000000000000        45.3061238959232        1.52492868133051     
   21.5000000000000        45.3061709951612        1.52493026661243     
   21.6000000000000        45.3062181003029        1.52493185209305     
   21.7000000000000        45.3062652113494        1.52493343777242     
   21.8000000000000        45.3063123283017        1.52493502365057     
   21.9000000000000        45.3063594511609        1.52493660972754     
   22.0000000000000        45.3064065799281        1.52493819600336     
   22.1000000000000        45.3064537146044        1.52493978247807     
   22.2000000000000        45.3065008551910        1.52494136915171     
   22.3000000000000        45.3065480016889        1.52494295602431     
   22.4000000000000        45.3065951540991        1.52494454309592     
   22.5000000000000        45.3066423124229        1.52494613036656     
   22.6000000000000        45.3066894766613        1.52494771783628     
   22.7000000000000        45.3067366468153        1.52494930550512     
   22.8000000000000        45.3067838228862        1.52495089337310     
   22.9000000000000        45.3068310048749        1.52495248144027     
   23.0000000000000        45.3068781927826        1.52495406970666     
   23.1000000000000        45.3069253866104        1.52495565817231     
   23.2000000000000        45.3069725863594        1.52495724683726     
   23.3000000000000        45.3070197920307        1.52495883570154     
   23.4000000000000        45.3070670036253        1.52496042476519     
   23.5000000000000        45.3071142211444        1.52496201402825     
   23.6000000000000        45.3071614445891        1.52496360349076     
   23.7000000000000        45.3072086739604        1.52496519315275     
   23.8000000000000        45.3072559092596        1.52496678301425     
   23.9000000000000        45.3073031504876        1.52496837307532     
   24.0000000000000        45.3073503976455        1.52496996333597     
   24.1000000000000        45.3073976507345        1.52497155379626     
   24.2000000000000        45.3074449097557        1.52497314445621     
   24.3000000000000        45.3074921747102        1.52497473531586     
   24.4000000000000        45.3075394455990        1.52497632637526     
   24.5000000000000        45.3075867224233        1.52497791763444     
   24.6000000000000        45.3076340051841        1.52497950909343     
   24.7000000000000        45.3076812938826        1.52498110075227     
   24.8000000000000        45.3077285885199        1.52498269261100     
   24.9000000000000        45.3077758890971        1.52498428466965     
   25.0000000000000        45.3078231956152        1.52498587692827     
   25.1000000000000        45.3078705080754        1.52498746938689     
   25.2000000000000        45.3079178264787        1.52498906204555     
   25.3000000000000        45.3079651508263        1.52499065490428     
   25.4000000000000        45.3080124811193        1.52499224796312     
   25.5000000000000        45.3080598173588        1.52499384122211     
   25.6000000000000        45.3081071595459        1.52499543468129     
   25.7000000000000        45.3081545076816        1.52499702834069     
   25.8000000000000        45.3082018617671        1.52499862220035     
   25.9000000000000        45.3082492218035        1.52500021626030     
   26.0000000000000        45.3082965877919        1.52500181052059     
   26.1000000000000        45.3083439597334        1.52500340498126     
   26.2000000000000        45.3083913376291        1.52500499964233     
   26.3000000000000        45.3084387214801        1.52500659450384     
   26.4000000000000        45.3084861112875        1.52500818956584     
   26.5000000000000        45.3085335070523        1.52500978482835     
   26.6000000000000        45.3085809087758        1.52501138029143     
   26.7000000000000        45.3086283164590        1.52501297595510     
   26.8000000000000        45.3086757301031        1.52501457181940     
