 # applied field (T), theta (degree), phi (degree), abs
     0.00000    90.00000    45.42857    50.17615
     0.10000    89.65605    44.57143    50.17615
     0.20000    89.31210    45.42857    50.17615
     0.30000    88.96815    44.57143    50.17615
     0.40000    88.62420    45.42857    50.17615
     0.50000    88.33758    45.42857    50.17615
     0.60000    87.99363    45.42857    50.17615
     0.70000    87.64968    44.57143    50.17615
     0.80000    87.30573    44.57143    50.17615
     0.90000    86.96178    44.57143    50.17615
     1.00000    86.61783    44.57143    50.17615
     1.10000    86.27389    44.57143    50.17615
     1.20000    85.92994    45.42857    50.17615
     1.30000    85.58599    44.57143    50.17615
     1.40000    85.24204    45.42857    50.17615
     1.50000    84.95541    44.57143    50.17615
     1.60000    84.61146    44.57143    50.17615
     1.70000    84.26752    44.57143    50.17615
     1.80000    83.92357    45.42857    50.17615
     1.90000    83.57962    45.42857    50.17615
     2.00000    83.23567    45.00000    50.17615
     2.10000    82.89172    45.00000    50.17615
     2.20000    82.54777    45.00000    50.17615
     2.30000    82.20382    45.00000    50.17615
     2.40000    81.85987    45.00000    50.17615
     2.50000    81.51592    45.00000    50.17615
     2.60000    81.17197    45.00000    50.17615
     2.70000    80.82803    45.00000    50.17615
     2.80000    80.48408    45.00000    50.17615
     2.90000    80.14013    45.00000    50.17615
     3.00000    79.79618    45.00000    50.17615
     3.10000    79.39490    44.56311    50.17615
     3.20000    79.05096    45.43689    50.17615
     3.30000    78.70701    44.56311    50.17615
     3.40000    78.36306    44.56311    50.17615
     3.50000    78.01911    45.43689    50.17615
     3.60000    77.67516    44.56311    50.17615
     3.70000    77.27389    44.56311    50.17615
     3.80000    76.87261    45.00000    50.17615
     3.90000    76.58599    45.00000    50.17615
     4.00000    76.24204    45.00000    50.17615
     4.10000    75.84076    45.00000    50.17615
     4.20000    75.49682    45.00000    50.17615
     4.30000    75.15287    45.00000    50.17615
     4.40000    74.75159    45.00000    50.17615
     4.50000    74.40764    44.55446    50.17615
     4.60000    74.00637    44.55446    50.17615
     4.70000    73.66242    44.55446    50.17615
     4.80000    73.26115    44.55446    50.17615
     4.90000    72.91720    45.44554    50.17615
     5.00000    72.51592    45.00000    50.17615
     5.10000    72.17197    45.00000    50.17615
     5.20000    71.77070    45.00000    50.17615
     5.30000    71.36943    45.00000    50.17615
     5.40000    71.02548    45.00000    50.17615
     5.50000    70.62420    44.54545    50.17615
     5.60000    70.22293    45.45455    50.17615
     5.70000    69.82166    45.45455    50.17615
     5.80000    69.42038    44.54545    50.17615
     5.90000    69.01911    45.00000    50.17615
     6.00000    68.61783    45.00000    50.17615
     6.10000    68.21656    45.00000    50.17615
     6.20000    67.87261    45.00000    50.17615
     6.30000    67.35669    45.46392    50.17615
     6.40000    66.95541    44.53608    50.17615
     6.50000    66.43949    45.00000    50.17615
     6.60000    66.09554    45.00000    50.17615
     6.70000    65.63694    45.00000    50.17615
     6.80000    65.23567    45.00000    50.17615
     6.90000    64.77707    45.47368    50.17615
     7.00000    64.31847    44.52632    50.17615
     7.10000    63.80255    45.00000    50.17615
     7.20000    63.40127    45.00000    50.17615
     7.30000    62.88535    45.00000    50.17615
     7.40000    62.42675    44.51613    50.17615
     7.50000    61.91083    44.51613    50.17615
     7.60000    61.45223    45.00000    50.17615
     7.70000    60.93631    45.00000    50.17615
     7.80000    60.36306    45.00000    50.17615
     7.90000    59.84713    45.49451    50.17615
     8.00000    59.21656    45.00000    50.17615
     8.10000    58.70064    45.00000    50.17615
     8.20000    58.24204    45.00000    50.17615
     8.30000    57.55414    44.49438    50.17615
     8.40000    56.92357    45.00000    50.17615
     8.50000    56.23567    45.00000    50.17615
     8.60000    55.60510    44.48276    50.17615
     8.70000    54.85987    45.00000    50.17615
     8.80000    54.11465    45.52941    50.17615
     8.90000    53.31210    45.00000    50.17615
     9.00000    52.45223    45.00000    50.17615
     9.10000    51.53503    45.00000    50.17615
     9.20000    50.67516    45.00000    50.17615
     9.30000    49.41401    45.00000    50.17615
     9.40000    48.09554    45.00000    50.17615
     9.50000    46.43312    45.00000    50.17615
     9.60000    44.19745    45.00000    50.17615
     9.70000    15.01911    45.00000    50.17615
     9.80000    11.80892    45.00000    50.17615
     9.90000     8.54140    45.00000    50.17615
    10.00000     4.29936    45.00000    50.17615
    10.10000     0.00000     0.00000    50.17615
    10.20000     0.00000     0.00000    50.17615
    10.30000     0.00000     0.00000    50.17615
    10.40000     0.00000     0.00000    50.17615
    10.50000     0.00000     0.00000    50.17615
    10.60000     0.00000     0.00000    50.17615
    10.70000     0.00000     0.00000    50.17615
    10.80000     0.00000     0.00000    50.17615
    10.90000     0.00000     0.00000    50.17615
    11.00000     0.00000     0.00000    50.17615
    11.10000     0.00000     0.00000    50.17615
    11.20000     0.00000     0.00000    50.17615
    11.30000     0.00000     0.00000    50.17615
    11.40000     0.00000     0.00000    50.17615
    11.50000     0.00000     0.00000    50.17615
    11.60000     0.00000     0.00000    50.17615
    11.70000     0.00000     0.00000    50.17615
    11.80000     0.00000     0.00000    50.17615
    11.90000     0.00000     0.00000    50.17615
    12.00000     0.00000     0.00000    50.17615
    12.10000     0.00000     0.00000    50.17615
    12.20000     0.00000     0.00000    50.17615
    12.30000     0.00000     0.00000    50.17615
    12.40000     0.00000     0.00000    50.17615
    12.50000     0.00000     0.00000    50.17615
    12.60000     0.00000     0.00000    50.17615
    12.70000     0.00000     0.00000    50.17615
    12.80000     0.00000     0.00000    50.17615
    12.90000     0.00000     0.00000    50.17615
    13.00000     0.00000     0.00000    50.17615
    13.10000     0.00000     0.00000    50.17615
    13.20000     0.00000     0.00000    50.17615
    13.30000     0.00000     0.00000    50.17615
    13.40000     0.00000     0.00000    50.17615
    13.50000     0.00000     0.00000    50.17615
    13.60000     0.00000     0.00000    50.17615
    13.70000     0.00000     0.00000    50.17615
    13.80000     0.00000     0.00000    50.17615
    13.90000     0.00000     0.00000    50.17615
    14.00000     0.00000     0.00000    50.17615
    14.10000     0.00000     0.00000    50.17615
    14.20000     0.00000     0.00000    50.17615
    14.30000     0.00000     0.00000    50.17615
    14.40000     0.00000     0.00000    50.17615
    14.50000     0.00000     0.00000    50.17615
    14.60000     0.00000     0.00000    50.17615
    14.70000     0.00000     0.00000    50.17615
    14.80000     0.00000     0.00000    50.17615
    14.90000     0.00000     0.00000    50.17615
    15.00000     0.00000     0.00000    50.17615
    15.10000     0.00000     0.00000    50.17615
    15.20000     0.00000     0.00000    50.17615
    15.30000     0.00000     0.00000    50.17615
    15.40000     0.00000     0.00000    50.17615
    15.50000     0.00000     0.00000    50.17615
    15.60000     0.00000     0.00000    50.17615
    15.70000     0.00000     0.00000    50.17615
    15.80000     0.00000     0.00000    50.17615
    15.90000     0.00000     0.00000    50.17615
    16.00000     0.00000     0.00000    50.17615
    16.10000     0.00000     0.00000    50.17615
    16.20000     0.00000     0.00000    50.17615
    16.30000     0.00000     0.00000    50.17615
    16.40000     0.00000     0.00000    50.17615
    16.50000     0.00000     0.00000    50.17615
    16.60000     0.00000     0.00000    50.17615
    16.70000     0.00000     0.00000    50.17615
    16.80000     0.00000     0.00000    50.17615
    16.90000     0.00000     0.00000    50.17615
    17.00000     0.00000     0.00000    50.17615
    17.10000     0.00000     0.00000    50.17615
    17.20000     0.00000     0.00000    50.17615
    17.30000     0.00000     0.00000    50.17615
    17.40000     0.00000     0.00000    50.17615
    17.50000     0.00000     0.00000    50.17615
    17.60000     0.00000     0.00000    50.17615
    17.70000     0.00000     0.00000    50.17615
    17.80000     0.00000     0.00000    50.17615
    17.90000     0.00000     0.00000    50.17615
    18.00000     0.00000     0.00000    50.17615
    18.10000     0.00000     0.00000    50.17615
    18.20000     0.00000     0.00000    50.17615
    18.30000     0.00000     0.00000    50.17615
    18.40000     0.00000     0.00000    50.17615
    18.50000     0.00000     0.00000    50.17615
    18.60000     0.00000     0.00000    50.17615
    18.70000     0.00000     0.00000    50.17615
    18.80000     0.00000     0.00000    50.17615
    18.90000     0.00000     0.00000    50.17615
    19.00000     0.00000     0.00000    50.17615
    19.10000     0.00000     0.00000    50.17615
    19.20000     0.00000     0.00000    50.17615
    19.30000     0.00000     0.00000    50.17615
    19.40000     0.00000     0.00000    50.17615
    19.50000     0.00000     0.00000    50.17615
    19.60000     0.00000     0.00000    50.17615
    19.70000     0.00000     0.00000    50.17615
    19.80000     0.00000     0.00000    50.17615
    19.90000     0.00000     0.00000    50.17615
    20.00000     0.00000     0.00000    50.17615
    20.10000     0.00000     0.00000    50.17615
    20.20000     0.00000     0.00000    50.17615
    20.30000     0.00000     0.00000    50.17615
    20.40000     0.00000     0.00000    50.17615
    20.50000     0.00000     0.00000    50.17615
    20.60000     0.00000     0.00000    50.17615
    20.70000     0.00000     0.00000    50.17615
    20.80000     0.00000     0.00000    50.17615
    20.90000     0.00000     0.00000    50.17615
    21.00000     0.00000     0.00000    50.17615
    21.10000     0.00000     0.00000    50.17615
    21.20000     0.00000     0.00000    50.17615
    21.30000     0.00000     0.00000    50.17615
    21.40000     0.00000     0.00000    50.17615
    21.50000     0.00000     0.00000    50.17615
    21.60000     0.00000     0.00000    50.17615
    21.70000     0.00000     0.00000    50.17615
    21.80000     0.00000     0.00000    50.17615
    21.90000     0.00000     0.00000    50.17615
    22.00000     0.00000     0.00000    50.17615
    22.10000     0.00000     0.00000    50.17615
    22.20000     0.00000     0.00000    50.17615
    22.30000     0.00000     0.00000    50.17615
    22.40000     0.00000     0.00000    50.17615
    22.50000     0.00000     0.00000    50.17615
    22.60000     0.00000     0.00000    50.17615
    22.70000     0.00000     0.00000    50.17615
    22.80000     0.00000     0.00000    50.17615
    22.90000     0.00000     0.00000    50.17615
    23.00000     0.00000     0.00000    50.17615
    23.10000     0.00000     0.00000    50.17615
    23.20000     0.00000     0.00000    50.17615
    23.30000     0.00000     0.00000    50.17615
    23.40000     0.00000     0.00000    50.17615
    23.50000     0.00000     0.00000    50.17615
    23.60000     0.00000     0.00000    50.17615
    23.70000     0.00000     0.00000    50.17615
    23.80000     0.00000     0.00000    50.17615
    23.90000     0.00000     0.00000    50.17615
    24.00000     0.00000     0.00000    50.17615
    24.10000     0.00000     0.00000    50.17615
    24.20000     0.00000     0.00000    50.17615
    24.30000     0.00000     0.00000    50.17615
    24.40000     0.00000     0.00000    50.17615
    24.50000     0.00000     0.00000    50.17615
    24.60000     0.00000     0.00000    50.17615
    24.70000     0.00000     0.00000    50.17615
    24.80000     0.00000     0.00000    50.17615
    24.90000     0.00000     0.00000    50.17615
    25.00000     0.00000     0.00000    50.17615
    25.10000     0.00000     0.00000    50.17615
    25.20000     0.00000     0.00000    50.17615
    25.30000     0.00000     0.00000    50.17615
    25.40000     0.00000     0.00000    50.17615
    25.50000     0.00000     0.00000    50.17615
    25.60000     0.00000     0.00000    50.17615
    25.70000     0.00000     0.00000    50.17615
    25.80000     0.00000     0.00000    50.17615
    25.90000     0.00000     0.00000    50.17615
    26.00000     0.00000     0.00000    50.17615
    26.10000     0.00000     0.00000    50.17615
    26.20000     0.00000     0.00000    50.17615
    26.30000     0.00000     0.00000    50.17615
    26.40000     0.00000     0.00000    50.17615
    26.50000     0.00000     0.00000    50.17615
    26.60000     0.00000     0.00000    50.17615
    26.70000     0.00000     0.00000    50.17615
    26.80000     0.00000     0.00000    50.17615
    26.90000     0.00000     0.00000    50.17615
    27.00000     0.00000     0.00000    50.17615
    27.10000     0.00000     0.00000    50.17615
    27.20000     0.00000     0.00000    50.17615
    27.30000     0.00000     0.00000    50.17615
    27.40000     0.00000     0.00000    50.17615
    27.50000     0.00000     0.00000    50.17615
    27.60000     0.00000     0.00000    50.17615
    27.70000     0.00000     0.00000    50.17615
    27.80000     0.00000     0.00000    50.17615
    27.90000     0.00000     0.00000    50.17615
    28.00000     0.00000     0.00000    50.17615
    28.10000     0.00000     0.00000    50.17615
    28.20000     0.00000     0.00000    50.17615
    28.30000     0.00000     0.00000    50.17615
    28.40000     0.00000     0.00000    50.17615
    28.50000     0.00000     0.00000    50.17615
    28.60000     0.00000     0.00000    50.17615
    28.70000     0.00000     0.00000    50.17615
    28.80000     0.00000     0.00000    50.17615
    28.90000     0.00000     0.00000    50.17615
    29.00000     0.00000     0.00000    50.17615
    29.10000     0.00000     0.00000    50.17615
    29.20000     0.00000     0.00000    50.17615
    29.30000     0.00000     0.00000    50.17615
    29.40000     0.00000     0.00000    50.17615
    29.50000     0.00000     0.00000    50.17615
    29.60000     0.00000     0.00000    50.17615
    29.70000     0.00000     0.00000    50.17615
    29.80000     0.00000     0.00000    50.17615
    29.90000     0.00000     0.00000    50.17615
    30.00000     0.00000     0.00000    50.17615
    30.10000     0.00000     0.00000    50.17615
    30.20000     0.00000     0.00000    50.17615
    30.30000     0.00000     0.00000    50.17615
    30.40000     0.00000     0.00000    50.17615
    30.50000     0.00000     0.00000    50.17615
    30.60000     0.00000     0.00000    50.17615
    30.70000     0.00000     0.00000    50.17615
    30.80000     0.00000     0.00000    50.17615
    30.90000     0.00000     0.00000    50.17615
    31.00000     0.00000     0.00000    50.17615
    31.10000     0.00000     0.00000    50.17615
    31.20000     0.00000     0.00000    50.17615
    31.30000     0.00000     0.00000    50.17615
    31.40000     0.00000     0.00000    50.17615
    31.50000     0.00000     0.00000    50.17615
    31.60000     0.00000     0.00000    50.17615
    31.70000     0.00000     0.00000    50.17615
    31.80000     0.00000     0.00000    50.17615
    31.90000     0.00000     0.00000    50.17615
    32.00000     0.00000     0.00000    50.17615
    32.10000     0.00000     0.00000    50.17615
    32.20000     0.00000     0.00000    50.17615
    32.30000     0.00000     0.00000    50.17615
    32.40000     0.00000     0.00000    50.17615
    32.50000     0.00000     0.00000    50.17615
    32.60000     0.00000     0.00000    50.17615
    32.70000     0.00000     0.00000    50.17615
    32.80000     0.00000     0.00000    50.17615
    32.90000     0.00000     0.00000    50.17615
    33.00000     0.00000     0.00000    50.17615
    33.10000     0.00000     0.00000    50.17615
    33.20000     0.00000     0.00000    50.17615
    33.30000     0.00000     0.00000    50.17615
    33.40000     0.00000     0.00000    50.17615
    33.50000     0.00000     0.00000    50.17615
    33.60000     0.00000     0.00000    50.17615
    33.70000     0.00000     0.00000    50.17615
    33.80000     0.00000     0.00000    50.17615
    33.90000     0.00000     0.00000    50.17615
    34.00000     0.00000     0.00000    50.17615
    34.10000     0.00000     0.00000    50.17615
    34.20000     0.00000     0.00000    50.17615
    34.30000     0.00000     0.00000    50.17615
    34.40000     0.00000     0.00000    50.17615
    34.50000     0.00000     0.00000    50.17615
    34.60000     0.00000     0.00000    50.17615
    34.70000     0.00000     0.00000    50.17615
    34.80000     0.00000     0.00000    50.17615
    34.90000     0.00000     0.00000    50.17615
    35.00000     0.00000     0.00000    50.17615
    35.10000     0.00000     0.00000    50.17615
    35.20000     0.00000     0.00000    50.17615
    35.30000     0.00000     0.00000    50.17615
    35.40000     0.00000     0.00000    50.17615
    35.50000     0.00000     0.00000    50.17615
    35.60000     0.00000     0.00000    50.17615
    35.70000     0.00000     0.00000    50.17615
    35.80000     0.00000     0.00000    50.17615
    35.90000     0.00000     0.00000    50.17615
    36.00000     0.00000     0.00000    50.17615
    36.10000     0.00000     0.00000    50.17615
    36.20000     0.00000     0.00000    50.17615
    36.30000     0.00000     0.00000    50.17615
    36.40000     0.00000     0.00000    50.17615
    36.50000     0.00000     0.00000    50.17615
    36.60000     0.00000     0.00000    50.17615
    36.70000     0.00000     0.00000    50.17615
    36.80000     0.00000     0.00000    50.17615
    36.90000     0.00000     0.00000    50.17615
    37.00000     0.00000     0.00000    50.17615
    37.10000     0.00000     0.00000    50.17615
    37.20000     0.00000     0.00000    50.17615
    37.30000     0.00000     0.00000    50.17615
    37.40000     0.00000     0.00000    50.17615
    37.50000     0.00000     0.00000    50.17615
    37.60000     0.00000     0.00000    50.17615
    37.70000     0.00000     0.00000    50.17615
    37.80000     0.00000     0.00000    50.17615
    37.90000     0.00000     0.00000    50.17615
    38.00000     0.00000     0.00000    50.17615
    38.10000     0.00000     0.00000    50.17615
    38.20000     0.00000     0.00000    50.17615
    38.30000     0.00000     0.00000    50.17615
    38.40000     0.00000     0.00000    50.17615
    38.50000     0.00000     0.00000    50.17615
    38.60000     0.00000     0.00000    50.17615
    38.70000     0.00000     0.00000    50.17615
    38.80000     0.00000     0.00000    50.17615
    38.90000     0.00000     0.00000    50.17615
    39.00000     0.00000     0.00000    50.17615
    39.10000     0.00000     0.00000    50.17615
    39.20000     0.00000     0.00000    50.17615
    39.30000     0.00000     0.00000    50.17615
    39.40000     0.00000     0.00000    50.17615
    39.50000     0.00000     0.00000    50.17615
    39.60000     0.00000     0.00000    50.17615
    39.70000     0.00000     0.00000    50.17615
    39.80000     0.00000     0.00000    50.17615
    39.90000     0.00000     0.00000    50.17615
    40.00000     0.00000     0.00000    50.17615
