 # applied field (T), magnetization (2 f.u.), magnetization (T)
 # T=0 1st order approx.
 # K1(0) (K, MJ/m^3)   46.8508835692452        3.71096931396659     
 # K2(0) (K, MJ/m^3)  -13.9981912906353       -1.10877008869651     
 # from A20
 # K1(0) from A20 (K, MJ/m^3)   30.8529506656621        1.22190174915672     
  0.000000000000000E+000  4.329853464807140E-015  1.447461390899838E-016
  0.100000000000000       0.323248537529016       1.080613423851581E-002
  0.200000000000000       0.646482509224199       2.161178154410723E-002
  0.300000000000000       0.969687349341835       3.241645498686243E-002
  0.400000000000000        1.29284849231764       4.321966764286793E-002
  0.500000000000000        1.61595137285461       5.402093259714562E-002
  0.600000000000000        1.89291989500626       6.327993513770742E-002
  0.700000000000000        2.21587590924600       7.407629038091534E-002
  0.800000000000000        2.53873204444445       8.486930668766253E-002
  0.900000000000000        2.86147373709308       9.565849720275918E-002
   1.00000000000000        3.18408642432980       0.106443375092625     
   1.10000000000000        3.50655554400328       0.117223453547442     
   1.20000000000000        3.82886653473072       0.127998245783083     
   1.30000000000000        4.15100483594867       0.138767265042810     
   1.40000000000000        4.47295588795596       0.149530024598713     
   1.50000000000000        4.79470513194839       0.160286037752867     
   1.60000000000000        5.11623801004448       0.171034817838193     
