 # applied field (T), magnetization (2 f.u.), magnetization (T)
  0.000000000000000E+000  2.950679347185457E-015  1.015312270734193E-016
  0.100000000000000       0.624053189777696       2.147332144973614E-002
  0.200000000000000        1.20006139530570       4.129344184587496E-002
  0.300000000000000        1.82384711582633       6.275755982797578E-002
  0.400000000000000        2.44734199870632       8.421167024942407E-002
  0.500000000000000        3.02256539113607       0.104004785665518     
  0.600000000000000        3.64520924917749       0.125429612797946     
  0.700000000000000        4.26725902357707       0.146833997844317     
  0.800000000000000        4.84087934052547       0.166571952329127     
  0.900000000000000        5.46149546971434       0.187927006445125     
   1.00000000000000        6.08121493798335       0.209251206960052     
   1.10000000000000        6.69993445449163       0.230540999693810     
   1.20000000000000        7.31755086550579       0.251792835184089     
   1.30000000000000        7.93396116959923       0.273003169209372     
   1.40000000000000        8.54906253285021       0.294168463311890     
   1.50000000000000        9.20986094007682       0.316906167155540     
   1.60000000000000        9.82191606716966       0.337966641974530     
   1.70000000000000        10.4323470587037       0.358971231196741     
   1.80000000000000        11.0877644331452       0.381523776709952     
   1.90000000000000        11.7410531014277       0.404003074634054     
   2.00000000000000        12.3456951456233       0.424808469414044     
   2.10000000000000        12.9945208308102       0.447134198584387     
   2.20000000000000        13.6408478036885       0.469373948460827     
   2.30000000000000        14.3303923050414       0.493100789335918     
   2.40000000000000        14.9711445772819       0.515148716879354     
   2.50000000000000        15.6544294500549       0.538660167433791     
   2.60000000000000        16.2890721865407       0.560497869266794     
   2.70000000000000        17.0104613989122       0.585320468848638     
   2.80000000000000        17.6829050172397       0.608458877897256     
   2.90000000000000        18.3514325662609       0.631462537189904     
   3.00000000000000        19.0600134839317       0.655844410510213     
   3.10000000000000        19.7637874940276       0.680060880827656     
   3.20000000000000        20.5060515443706       0.705601771916245     
   3.30000000000000        21.1993439929925       0.729457577561973     
   3.40000000000000        21.9728341455224       0.756072941373183     
   3.50000000000000        22.6969274691946       0.780988587913439     
   3.60000000000000        23.4565223851487       0.807125824400731     
   3.70000000000000        24.2501392294302       0.834433736425430     
   3.80000000000000        25.0350976160337       0.861443715761018     
   3.90000000000000        25.8516788931207       0.889541821082733     
   4.00000000000000        26.6980399767066       0.918664632900843     
   4.10000000000000        27.5327302532680       0.947385858772562     
   4.20000000000000        28.3942226243765       0.977029329736786     
   4.30000000000000        29.2802589314819        1.00751734381999     
   4.40000000000000        30.2258329366700        1.04005401681601     
   4.50000000000000        31.1892703344030        1.07320535916487     
   4.60000000000000        32.1675158723780        1.10686624134254     
   4.70000000000000        33.2269644652927        1.14332127525276     
   4.80000000000000        34.3240977322101        1.18107301773181     
   4.90000000000000        35.4837989935126        1.22097768992567     
   5.00000000000000        36.7247089401130        1.26367670758956     
   5.10000000000000        38.0868353551631        1.31054671617964     
   5.20000000000000        39.5643021312751        1.36138552212511     
   5.30000000000000        41.2595922434871        1.41971950731483     
   5.40000000000000        43.3162805461578        1.49048900223703     
   5.50000000000000        46.1741672862572        1.58882728756646     
   5.60000000000000        48.0780264383125        1.65433801683886     
   5.70000000000000        48.0782290276866        1.65434498782599     
   5.80000000000000        48.0784315891698        1.65435195785340     
   5.90000000000000        48.0786341227723        1.65435892692146     
   6.00000000000000        48.0788366285043        1.65436589503050     
   6.10000000000000        48.0790391063760        1.65437286218090     
   6.20000000000000        48.0792415563978        1.65437982837299     
   6.30000000000000        48.0794439785799        1.65438679360713     
   6.40000000000000        48.0796463729325        1.65439375788368     
   6.50000000000000        48.0798487394659        1.65440072120298     
   6.60000000000000        48.0800510781904        1.65440768356540     
   6.70000000000000        48.0802533891161        1.65441464497127     
   6.80000000000000        48.0804556722533        1.65442160542096     
   6.90000000000000        48.0806579276123        1.65442856491481     
   7.00000000000000        48.0808601552033        1.65443552345318     
   7.10000000000000        48.0810623550366        1.65444248103643     
   7.20000000000000        48.0812645271224        1.65444943766490     
   7.30000000000000        48.0814666714708        1.65445639333894     
   7.40000000000000        48.0816687880923        1.65446334805891     
   7.50000000000000        48.0818708769969        1.65447030182516     
   7.60000000000000        48.0820729381950        1.65447725463805     
   7.70000000000000        48.0822749716968        1.65448420649792     
   7.80000000000000        48.0824769775125        1.65449115740513     
   7.90000000000000        48.0826789556523        1.65449810736002     
   8.00000000000000        48.0828809061264        1.65450505636296     
   8.10000000000000        48.0830828289452        1.65451200441429     
   8.20000000000000        48.0832847241188        1.65451895151437     
   8.30000000000000        48.0834865916575        1.65452589766354     
   8.40000000000000        48.0836884315714        1.65453284286216     
   8.50000000000000        48.0838902438709        1.65453978711058     
   8.60000000000000        48.0840920285660        1.65454673040916     
   8.70000000000000        48.0842937856672        1.65455367275824     
   8.80000000000000        48.0844955151845        1.65456061415817     
   8.90000000000000        48.0846972171282        1.65456755460931     
   9.00000000000000        48.0848988915084        1.65457449411202     
   9.10000000000000        48.0851005383356        1.65458143266663     
   9.20000000000000        48.0853021576197        1.65458837027350     
   9.30000000000000        48.0855037493712        1.65459530693299     
   9.40000000000000        48.0857053136001        1.65460224264544     
   9.50000000000000        48.0859068503167        1.65460917741121     
   9.60000000000000        48.0861083595312        1.65461611123065     
   9.70000000000000        48.0863098412538        1.65462304410411     
   9.80000000000000        48.0865112954947        1.65462997603194     
   9.90000000000000        48.0867127222641        1.65463690701449     
   10.0000000000000        48.0869141215723        1.65464383705211     
   10.1000000000000        48.0871154934295        1.65465076614516     
   10.2000000000000        48.0873168378457        1.65465769429399     
   10.3000000000000        48.0875181548313        1.65466462149894     
   10.4000000000000        48.0877194443965        1.65467154776036     
   10.5000000000000        48.0879207065514        1.65467847307862     
   10.6000000000000        48.0881219413063        1.65468539745406     
   10.7000000000000        48.0883231486713        1.65469232088702     
   10.8000000000000        48.0885243286567        1.65469924337787     
   10.9000000000000        48.0887254812726        1.65470616492695     
   11.0000000000000        48.0889266065293        1.65471308553462     
   11.1000000000000        48.0891277044369        1.65472000520121     
   11.2000000000000        48.0893287750056        1.65472692392710     
   11.3000000000000        48.0895298182456        1.65473384171261     
   11.4000000000000        48.0897308341672        1.65474075855812     
   11.5000000000000        48.0899318227804        1.65474767446396     
   11.6000000000000        48.0901327840955        1.65475458943049     
   11.7000000000000        48.0903337181227        1.65476150345805     
   11.8000000000000        48.0905346248722        1.65476841654700     
   11.9000000000000        48.0907355043540        1.65477532869769     
   12.0000000000000        48.0909363565786        1.65478223991048     
   12.1000000000000        48.0911371815559        1.65478915018570     
   12.2000000000000        48.0913379792962        1.65479605952371     
   12.3000000000000        48.0915387498097        1.65480296792486     
   12.4000000000000        48.0917394931065        1.65480987538949     
   12.5000000000000        48.0919402091968        1.65481678191797     
   12.6000000000000        48.0921408980909        1.65482368751065     
   12.7000000000000        48.0923415597988        1.65483059216786     
   12.8000000000000        48.0925421943308        1.65483749588996     
   12.9000000000000        48.0927428016970        1.65484439867730     
   13.0000000000000        48.0929433819076        1.65485130053023     
   13.1000000000000        48.0931439349728        1.65485820144911     
   13.2000000000000        48.0933444609026        1.65486510143427     
   13.3000000000000        48.0935449597074        1.65487200048608     
   13.4000000000000        48.0937454313973        1.65487889860487     
   13.5000000000000        48.0939458759824        1.65488579579101     
   13.6000000000000        48.0941462934728        1.65489269204483     
   13.7000000000000        48.0943466838789        1.65489958736670     
   13.8000000000000        48.0945470472106        1.65490648175695     
   13.9000000000000        48.0947473834783        1.65491337521595     
   14.0000000000000        48.0949476926920        1.65492026774403     
   14.1000000000000        48.0951479748619        1.65492715934155     
   14.2000000000000        48.0953482299981        1.65493405000885     
   14.3000000000000        48.0955484581109        1.65494093974630     
   14.4000000000000        48.0957486592103        1.65494782855423     
   14.5000000000000        48.0959488333065        1.65495471643299     
   14.6000000000000        48.0961489804098        1.65496160338294     
   14.7000000000000        48.0963491005301        1.65496848940443     
   14.8000000000000        48.0965491936777        1.65497537449780     
   14.9000000000000        48.0967492598628        1.65498225866340     
   15.0000000000000        48.0969492990954        1.65498914190158     
   15.1000000000000        48.0971493113857        1.65499602421270     
   15.2000000000000        48.0973492967440        1.65500290559710     
   15.3000000000000        48.0975492551802        1.65500978605512     
   15.4000000000000        48.0977491867046        1.65501666558712     
   15.5000000000000        48.0979490913272        1.65502354419345     
   15.6000000000000        48.0981489690583        1.65503042187446     
   15.7000000000000        48.0983488199080        1.65503729863049     
   15.8000000000000        48.0985486438864        1.65504417446190     
   15.9000000000000        48.0987484410036        1.65505104936903     
   16.0000000000000        48.0989482112698        1.65505792335223     
   16.1000000000000        48.0991479546952        1.65506479641185     
   16.2000000000000        48.0993476712898        1.65507166854824     
   16.3000000000000        48.0995473610637        1.65507853976175     
   16.4000000000000        48.0997470240272        1.65508541005272     
   16.5000000000000        48.0999466601904        1.65509227942151     
   16.6000000000000        48.1001462695633        1.65509914786846     
   16.7000000000000        48.1003458521561        1.65510601539392     
   16.8000000000000        48.1005454079790        1.65511288199825     
   16.9000000000000        48.1007449370420        1.65511974768178     
   17.0000000000000        48.1009444393553        1.65512661244487     
   17.1000000000000        48.1011439149290        1.65513347628787     
   17.2000000000000        48.1013433637732        1.65514033921111     
   17.3000000000000        48.1015427858981        1.65514720121497     
   17.4000000000000        48.1017421813137        1.65515406229977     
   17.5000000000000        48.1019415500302        1.65516092246587     
   17.6000000000000        48.1021408920578        1.65516778171361     
   17.7000000000000        48.1023402074064        1.65517464004335     
   17.8000000000000        48.1025394960862        1.65518149745544     
   17.9000000000000        48.1027387581074        1.65518835395021     
   18.0000000000000        48.1029379934801        1.65519520952802     
   18.1000000000000        48.1031372022143        1.65520206418922     
   18.2000000000000        48.1033363843202        1.65520891793415     
   18.3000000000000        48.1035355398079        1.65521577076317     
   18.4000000000000        48.1037346686875        1.65522262267661     
   18.5000000000000        48.1039337709691        1.65522947367483     
   18.6000000000000        48.1041328466628        1.65523632375818     
   18.7000000000000        48.1043318957787        1.65524317292700     
   18.8000000000000        48.1045309183269        1.65525002118164     
   18.9000000000000        48.1047299143175        1.65525686852245     
   19.0000000000000        48.1049288837607        1.65526371494978     
   19.1000000000000        48.1051278266665        1.65527056046397     
   19.2000000000000        48.1053267430449        1.65527740506537     
   19.3000000000000        48.1055256329062        1.65528424875433     
   19.4000000000000        48.1057244962604        1.65529109153119     
   19.5000000000000        48.1059233331176        1.65529793339631     
   19.6000000000000        48.1061221434878        1.65530477435003     
   19.7000000000000        48.1063209273813        1.65531161439269     
   19.8000000000000        48.1065196848080        1.65531845352465     
   19.9000000000000        48.1067184157781        1.65532529174625     
   20.0000000000000        48.1069171203017        1.65533212905784     
   20.1000000000000        48.1071157983888        1.65533896545977     
   20.2000000000000        48.1073144500496        1.65534580095238     
   20.3000000000000        48.1075130752940        1.65535263553602     
   20.4000000000000        48.1077116741322        1.65535946921104     
   20.5000000000000        48.1079102465744        1.65536630197779     
   20.6000000000000        48.1081087926305        1.65537313383660     
   20.7000000000000        48.1083073123106        1.65537996478783     
   20.8000000000000        48.1085058056249        1.65538679483183     
   20.9000000000000        48.1087042725833        1.65539362396894     
   21.0000000000000        48.1089027131961        1.65540045219950     
   21.1000000000000        48.1091011274731        1.65540727952388     
   21.2000000000000        48.1092995154247        1.65541410594240     
   21.3000000000000        48.1094978770607        1.65542093145542     
   21.4000000000000        48.1096962123913        1.65542775606329     
   21.5000000000000        48.1098945214265        1.65543457976635     
   21.6000000000000        48.1100928041765        1.65544140256495     
   21.7000000000000        48.1102910606512        1.65544822445943     
   21.8000000000000        48.1104892908608        1.65545504545014     
   21.9000000000000        48.1106874948153        1.65546186553743     
   22.0000000000000        48.1108856725248        1.65546868472165     
   22.1000000000000        48.1110838239994        1.65547550300313     
   22.2000000000000        48.1112819492490        1.65548232038223     
   22.3000000000000        48.1114800482839        1.65548913685929     
   22.4000000000000        48.1116781211139        1.65549595243466     
   22.5000000000000        48.1118761677492        1.65550276710869     
   22.6000000000000        48.1120741882000        1.65550958088171     
   22.7000000000000        48.1122721824760        1.65551639375409     
   22.8000000000000        48.1124701505876        1.65552320572615     
   22.9000000000000        48.1126680925447        1.65553001679826     
   23.0000000000000        48.1128660083574        1.65553682697075     
   23.1000000000000        48.1130638980356        1.65554363624397     
   23.2000000000000        48.1132617615896        1.65555044461826     
   23.3000000000000        48.1134595990293        1.65555725209398     
   23.4000000000000        48.1136574103647        1.65556405867147     
   23.5000000000000        48.1138551956060        1.65557086435107     
   23.6000000000000        48.1140529547631        1.65557766913313     
   23.7000000000000        48.1142506878462        1.65558447301800     
   23.8000000000000        48.1144483948652        1.65559127600602     
   23.9000000000000        48.1146460758302        1.65559807809753     
   24.0000000000000        48.1148437307513        1.65560487929289     
   24.1000000000000        48.1150413596384        1.65561167959243     
   24.2000000000000        48.1152389625016        1.65561847899650     
   24.3000000000000        48.1154365393511        1.65562527750546     
   24.4000000000000        48.1156340901967        1.65563207511964     
   24.5000000000000        48.1158316150485        1.65563887183938     
   24.6000000000000        48.1160291139166        1.65564566766504     
   24.7000000000000        48.1162265868110        1.65565246259696     
   24.8000000000000        48.1164240337418        1.65565925663549     
   24.9000000000000        48.1166214547189        1.65566604978096     
   25.0000000000000        48.1168188497524        1.65567284203373     
   25.1000000000000        48.1170162188523        1.65567963339414     
   25.2000000000000        48.1172135620287        1.65568642386254     
   25.3000000000000        48.1174108792915        1.65569321343926     
   25.4000000000000        48.1176081706509        1.65570000212467     
   25.5000000000000        48.1178054361167        1.65570678991909     
   25.6000000000000        48.1180026756992        1.65571357682287     
   25.7000000000000        48.1181998894082        1.65572036283637     
   25.8000000000000        48.1183970772538        1.65572714795992     
   25.9000000000000        48.1185942392460        1.65573393219387     
   26.0000000000000        48.1187913753948        1.65574071553856     
   26.1000000000000        48.1189884857103        1.65574749799434     
   26.2000000000000        48.1191855702025        1.65575427956156     
   26.3000000000000        48.1193826288813        1.65576106024055     
   26.4000000000000        48.1195796617568        1.65576784003167     
   26.5000000000000        48.1197766688390        1.65577461893525     
   26.6000000000000        48.1199736501380        1.65578139695165     
   26.7000000000000        48.1201706056636        1.65578817408120     
   26.8000000000000        48.1203675354260        1.65579495032425     
   26.9000000000000        48.1205644394352        1.65580172568115     
   27.0000000000000        48.1207613177011        1.65580850015223     
   27.1000000000000        48.1209581702337        1.65581527373785     
   27.2000000000000        48.1211549970431        1.65582204643835     
