 # applied field (T), theta (degree), phi (degree), abs for RE 3-4
     0.00000     0.00000     0.00000     0.07102     0.00000     0.00000     0.07102
     0.10000     0.84215   180.00000     0.07103     0.17860   180.00000     0.07102
     0.20000     1.51039   180.00000     0.07106     0.29431   180.00000     0.07102
     0.30000     2.35037   180.00000     0.07111     0.47277   180.00000     0.07102
     0.40000     3.01573   180.00000     0.07117     0.58831   180.00000     0.07103
     0.50000     3.85075   180.00000     0.07127     0.76645   180.00000     0.07104
     0.60000     4.68184   180.00000     0.07139     0.94433   180.00000     0.07105
     0.70000     5.33831   180.00000     0.07151     1.05931   180.00000     0.07106
     0.80000     6.16021   180.00000     0.07168     1.23659   180.00000     0.07107
     0.90000     6.97593   180.00000     0.07186     1.41346   180.00000     0.07109
     1.00000     7.61836   180.00000     0.07203     1.52755   180.00000     0.07110
     1.10000     8.42098   180.00000     0.07226     1.70355   180.00000     0.07112
     1.20000     9.05189   180.00000     0.07246     1.81689   180.00000     0.07114
     1.30000     9.83912   180.00000     0.07273     1.99184   180.00000     0.07116
     1.40000    10.61693   180.00000     0.07302     2.16613   180.00000     0.07119
     1.50000    11.22647   180.00000     0.07327     2.27804   180.00000     0.07120
     1.60000    11.98573   180.00000     0.07360     2.45102   180.00000     0.07123
     1.70000    12.73397   180.00000     0.07395     2.62318   180.00000     0.07126
     1.80000    13.31852   180.00000     0.07424     2.73335   180.00000     0.07129
     1.90000    14.04560   180.00000     0.07462     2.90394   180.00000     0.07132
     2.00000    14.61245   180.00000     0.07495     3.01283   180.00000     0.07135
     2.10000    15.31697   180.00000     0.07536     3.18169   180.00000     0.07139
     2.20000    16.00850   180.00000     0.07580     3.34951   180.00000     0.07143
     2.30000    16.54590   180.00000     0.07616     3.45615   180.00000     0.07145
     2.40000    17.21316   180.00000     0.07663     3.62199   180.00000     0.07150
     2.50000    17.86663   180.00000     0.07711     3.78666   180.00000     0.07154
     2.60000    18.37276   180.00000     0.07751     3.89076   180.00000     0.07157
     2.70000    19.00078   180.00000     0.07802     4.05322   180.00000     0.07162
     2.80000    19.61449   180.00000     0.07855     4.21437   180.00000     0.07167
     2.90000    20.08816   180.00000     0.07898     4.31566   180.00000     0.07170
     3.00000    20.67570   180.00000     0.07953     4.47438   180.00000     0.07176
     3.10000    21.24867   180.00000     0.08010     4.63168   180.00000     0.07181
     3.20000    21.68926   180.00000     0.08056     4.72989   180.00000     0.07185
     3.30000    22.23577   180.00000     0.08115     4.88455   180.00000     0.07190
     3.40000    22.76765   180.00000     0.08174     5.03767   180.00000     0.07196
     3.50000    23.17502   180.00000     0.08223     5.13256   180.00000     0.07200
     3.60000    23.68051   180.00000     0.08285     5.28284   180.00000     0.07206
     3.70000    24.17148   180.00000     0.08347     5.43148   180.00000     0.07212
     3.80000    24.54589   180.00000     0.08398     5.52282   180.00000     0.07217
     3.90000    25.01083   180.00000     0.08462     5.66844   180.00000     0.07223
     4.00000    25.46151   180.00000     0.08527     5.81231   180.00000     0.07229
     4.10000    25.80354   180.00000     0.08580     5.89989   180.00000     0.07234
     4.20000    26.22876   180.00000     0.08646     6.04058   180.00000     0.07240
     4.30000    26.64009   180.00000     0.08714     6.17943   180.00000     0.07247
     4.40000    26.95059   180.00000     0.08768     6.26305   180.00000     0.07252
     4.50000    27.33720   180.00000     0.08836     6.39856   180.00000     0.07259
     4.60000    27.71038   180.00000     0.08904     6.53216   180.00000     0.07266
     4.70000    28.07030   180.00000     0.08973     6.66381   180.00000     0.07273
     4.80000    28.33967   180.00000     0.09029     6.74176   180.00000     0.07278
     4.90000    28.67607   180.00000     0.09099     6.86989   180.00000     0.07285
     5.00000    28.99972   180.00000     0.09169     6.99600   180.00000     0.07292
     5.10000    29.31083   180.00000     0.09239     7.12006   180.00000     0.07299
     5.20000    29.54120   180.00000     0.09295     7.19206   180.00000     0.07304
     5.30000    29.83009   180.00000     0.09366     7.31244   180.00000     0.07311
     5.40000    30.10698   180.00000     0.09437     7.43072   180.00000     0.07319
     5.50000    30.37207   180.00000     0.09508     7.54689   180.00000     0.07326
     5.60000    30.56573   180.00000     0.09564     7.61269   180.00000     0.07331
     5.70000    30.80996   180.00000     0.09635     7.72503   180.00000     0.07339
     5.80000    31.04294   180.00000     0.09706     7.83521   180.00000     0.07346
     5.90000    31.26487   180.00000     0.09777     7.94319   180.00000     0.07354
     6.00000    31.47594   180.00000     0.09847     8.04898   180.00000     0.07361
     6.10000    31.62651   180.00000     0.09903     8.10666   180.00000     0.07366
     6.20000    31.81842   180.00000     0.09974     8.20850   180.00000     0.07374
     6.30000    31.99999   180.00000     0.10044     8.30810   180.00000     0.07381
     6.40000    32.17144   180.00000     0.10114     8.40545   180.00000     0.07388
     6.50000    32.33292   180.00000     0.10183     8.50054   180.00000     0.07396
     6.60000    32.44393   180.00000     0.10238     8.54988   180.00000     0.07401
     6.70000    32.58784   180.00000     0.10307     8.64092   180.00000     0.07408
     6.80000    32.72230   180.00000     0.10375     8.72969   180.00000     0.07415
     6.90000    32.84747   180.00000     0.10443     8.81616   180.00000     0.07422
     7.00000    32.96352   180.00000     0.10511     8.90034   180.00000     0.07429
     7.10000    33.07061   180.00000     0.10577     8.98221   180.00000     0.07437
     7.20000    33.16892   180.00000     0.10644     9.06177   180.00000     0.07444
     7.30000    33.25858   180.00000     0.10710     9.13902   180.00000     0.07450
     7.40000    33.31222   180.00000     0.10761     9.17445   180.00000     0.07455
     7.50000    33.38661   180.00000     0.10826     9.24759   180.00000     0.07461
     7.60000    33.45278   180.00000     0.10890     9.31840   180.00000     0.07468
     7.70000    33.51088   180.00000     0.10953     9.38690   180.00000     0.07474
     7.80000    33.56104   180.00000     0.11015     9.45307   180.00000     0.07481
     7.90000    33.60339   180.00000     0.11077     9.51692   180.00000     0.07487
     8.00000    33.63808   180.00000     0.11138     9.57846   180.00000     0.07493
     8.10000    33.66522   180.00000     0.11198     9.63768   180.00000     0.07499
     8.20000    33.68494   180.00000     0.11257     9.69458   180.00000     0.07505
     8.30000    33.69737   180.00000     0.11315     9.74917   180.00000     0.07511
     8.40000    33.70261   180.00000     0.11372     9.80145   180.00000     0.07516
     8.50000    33.70079   180.00000     0.11429     9.85143   180.00000     0.07521
     8.60000    33.69201   180.00000     0.11484     9.89910   180.00000     0.07526
     8.70000    33.67638   180.00000     0.11539     9.94448   180.00000     0.07531
     8.80000    33.65400   180.00000     0.11592     9.98757   180.00000     0.07536
     8.90000    33.62497   180.00000     0.11644    10.02838   180.00000     0.07541
     9.00000    33.58940   180.00000     0.11695    10.06690   180.00000     0.07545
     9.10000    33.54736   180.00000     0.11746    10.10316   180.00000     0.07549
     9.20000    33.50243   180.00000     0.11805    10.16750   180.00000     0.07555
     9.30000    33.44662   180.00000     0.11853    10.19874   180.00000     0.07559
     9.40000    33.38463   180.00000     0.11899    10.22774   180.00000     0.07562
     9.50000    33.31655   180.00000     0.11945    10.25450   180.00000     0.07565
     9.60000    33.24245   180.00000     0.11989    10.27903   180.00000     0.07568
     9.70000    33.16241   180.00000     0.12031    10.30135   180.00000     0.07570
     9.80000    33.07320   180.00000     0.12082    10.34875   180.00000     0.07575
     9.90000    32.98045   180.00000     0.12122    10.36617   180.00000     0.07577
    10.00000    32.88199   180.00000     0.12161    10.38141   180.00000     0.07578
    10.10000    32.77789   180.00000     0.12198    10.39448   180.00000     0.07580
    10.20000    32.66063   180.00000     0.12243    10.43066   180.00000     0.07582
    10.30000    32.54442   180.00000     0.12277    10.43894   180.00000     0.07583
    10.40000    32.42276   180.00000     0.12310    10.44507   180.00000     0.07583
    10.50000    32.29569   180.00000     0.12342    10.44908   180.00000     0.07583
    10.60000    32.15167   180.00000     0.12379    10.47429   180.00000     0.07585
    10.70000    32.01302   180.00000     0.12408    10.47362   180.00000     0.07584
    10.80000    31.85550   180.00000     0.12442    10.49317   180.00000     0.07584
    10.90000    31.70551   180.00000     0.12467    10.48788   180.00000     0.07583
    11.00000    31.55038   180.00000     0.12490    10.48052   180.00000     0.07580
    11.10000    31.37364   180.00000     0.12519    10.49199   180.00000     0.07579
    11.20000    31.20747   180.00000     0.12539    10.48010   180.00000     0.07577
    11.30000    31.01788   180.00000     0.12563    10.48611   180.00000     0.07575
    11.40000    30.84087   180.00000     0.12580    10.46975   180.00000     0.07571
    11.50000    30.63863   180.00000     0.12600    10.47037   180.00000     0.07568
    11.60000    30.45095   180.00000     0.12613    10.44960   180.00000     0.07563
    11.70000    30.23627   180.00000     0.12629    10.44491   180.00000     0.07559
    11.80000    30.01496   180.00000     0.12643    10.43733   180.00000     0.07554
    11.90000    29.81115   180.00000     0.12651    10.40987   180.00000     0.07548
    12.00000    29.57768   180.00000     0.12660    10.39711   180.00000     0.07542
    12.10000    29.33771   180.00000     0.12668    10.38153   180.00000     0.07535
    12.20000    29.11810   180.00000     0.12670    10.34753   180.00000     0.07527
    12.30000    28.86622   180.00000     0.12673    10.32690   180.00000     0.07519
    12.40000    28.60797   180.00000     0.12673    10.30352   180.00000     0.07510
    12.50000    28.34338   180.00000     0.12671    10.27743   180.00000     0.07501
    12.60000    28.10288   180.00000     0.12666    10.23480   180.00000     0.07491
    12.70000    27.82665   180.00000     0.12659    10.20381   180.00000     0.07480
    12.80000    27.54420   180.00000     0.12651    10.17017   180.00000     0.07469
    12.90000    27.25555   180.00000     0.12639    10.13390   180.00000     0.07457
    13.00000    26.96073   180.00000     0.12626    10.09502   180.00000     0.07444
    13.10000    26.65978   180.00000     0.12610    10.05357   180.00000     0.07430
    13.20000    26.35273   180.00000     0.12591    10.00955   180.00000     0.07415
    13.30000    26.03960   180.00000     0.12570     9.96299   180.00000     0.07400
    13.40000    25.72041   180.00000     0.12547     9.91392   180.00000     0.07384
    13.50000    25.35690   180.00000     0.12519     9.87224   180.00000     0.07366
    13.60000    25.02483   180.00000     0.12490     9.81778   180.00000     0.07348
    13.70000    24.68678   180.00000     0.12459     9.76087   180.00000     0.07329
    13.80000    24.34278   180.00000     0.12425     9.70152   180.00000     0.07309
    13.90000    23.95105   180.00000     0.12386     9.64795   180.00000     0.07287
    14.00000    23.59438   180.00000     0.12347     9.58339   180.00000     0.07266
    14.10000    23.18824   180.00000     0.12301     9.52380   180.00000     0.07242
    14.20000    22.81899   180.00000     0.12257     9.45412   180.00000     0.07218
    14.30000    22.39856   180.00000     0.12205     9.38862   180.00000     0.07191
    14.40000    22.01682   180.00000     0.12156     9.31389   180.00000     0.07166
    14.50000    21.58221   180.00000     0.12099     9.24257   180.00000     0.07137
    14.60000    21.14010   180.00000     0.12038     9.16816   180.00000     0.07107
    14.70000    20.73938   180.00000     0.11981     9.08581   180.00000     0.07078
    14.80000    20.28325   180.00000     0.11914     9.00571   180.00000     0.07045
    14.90000    19.81970   180.00000     0.11845     8.92258   180.00000     0.07012
    15.00000    19.34874   180.00000     0.11772     8.83646   180.00000     0.06976
    15.10000    18.87042   180.00000     0.11696     8.74735   180.00000     0.06940
    15.20000    18.38475   180.00000     0.11618     8.65527   180.00000     0.06902
    15.30000    17.89176   180.00000     0.11537     8.56024   180.00000     0.06863
    15.40000    17.33642   180.00000     0.11443     8.46439   180.00000     0.06818
    15.50000    16.82798   180.00000     0.11356     8.36312   180.00000     0.06776
    15.60000    16.31228   180.00000     0.11265     8.25894   180.00000     0.06732
    15.70000    15.73159   180.00000     0.11162     8.15279   180.00000     0.06683
    15.80000    15.14185   180.00000     0.11056     8.04297   180.00000     0.06631
    15.90000    14.60271   180.00000     0.10957     7.92934   180.00000     0.06583
    16.00000    13.99585   180.00000     0.10844     7.81259   180.00000     0.06528
    16.10000    13.37995   180.00000     0.10728     7.69219   180.00000     0.06472
    16.20000    12.75499   180.00000     0.10609     7.56812   180.00000     0.06413
    16.30000    12.12095   180.00000     0.10487     7.44040   180.00000     0.06353
    16.40000    11.41344   180.00000     0.10350     7.30720   180.00000     0.06284
    16.50000    10.76013   180.00000     0.10222     7.17172   180.00000     0.06220
    16.60000    10.09754   180.00000     0.10092     7.03252   180.00000     0.06154
    16.70000     9.35825   180.00000     0.09946     6.88663   180.00000     0.06079
    16.80000     8.60738   180.00000     0.09796     6.73617   180.00000     0.06002
    16.90000     7.84472   180.00000     0.09644     6.58109   180.00000     0.05922
    17.00000     7.07001   180.00000     0.09489     6.42135   180.00000     0.05840
    17.10000     6.21104   180.00000     0.09316     6.25228   180.00000     0.05748
    17.20000     5.40999   180.00000     0.09156     6.08254   180.00000     0.05661
    17.30000     4.52124   180.00000     0.08978     5.90246   180.00000     0.05564
    17.40000     3.61596   180.00000     0.08798     5.71646   180.00000     0.05463
    17.50000     2.69331   180.00000     0.08616     5.52438   180.00000     0.05360
    17.60000     1.67318   180.00000     0.08415     5.31928   180.00000     0.05245
    17.70000     0.62993   180.00000     0.08211     5.10673   180.00000     0.05127
    17.80000     0.43822   360.00000     0.08006     4.88641   180.00000     0.05005
    17.90000     1.61869   360.00000     0.07782     4.64970   180.00000     0.04870
    18.00000     2.83363   360.00000     0.07556     4.40331   180.00000     0.04731
    18.10000     4.08669   360.00000     0.07329     4.14662   180.00000     0.04588
    18.20000     5.47649   360.00000     0.07082     3.86882   180.00000     0.04431
    18.30000     7.01994   360.00000     0.06817     3.56688   180.00000     0.04259
    18.40000     8.63524   360.00000     0.06551     3.24874   180.00000     0.04082
    18.50000    10.44277   360.00000     0.06266     2.90000   180.00000     0.03888
    18.60000    12.47670   360.00000     0.05962     2.51509   180.00000     0.03677
    18.70000    14.78290   360.00000     0.05641     2.08659   180.00000     0.03448
    18.80000    17.42368   360.00000     0.05303     1.60415   180.00000     0.03201
    18.90000    20.64065   360.00000     0.04931     1.03361   180.00000     0.02921
    19.00000    24.80042   360.00000     0.04512     0.31909   180.00000     0.02593
    19.10000    30.29299   360.00000     0.04053     0.61587   360.00000     0.02216
    19.20000    38.59442   360.00000     0.03523     2.06356   360.00000     0.01743
    19.30000    54.34364   360.00000     0.02893     5.46416   360.00000     0.01071
    19.40000    90.00000   360.00000     0.02445    90.00000   360.00000     0.00129
    19.50000    90.00000   360.00000     0.02453    90.00000   360.00000     0.00139
    19.60000    90.00000   360.00000     0.02462    90.00000   360.00000     0.00149
    19.70000    90.00000   360.00000     0.02471    90.00000   360.00000     0.00158
    19.80000    90.00000   360.00000     0.02480    90.00000   360.00000     0.00168
    19.90000    90.00000   360.00000     0.02489    90.00000   360.00000     0.00178
    20.00000    90.00000   360.00000     0.02498    90.00000   360.00000     0.00187
    20.10000    90.00000   360.00000     0.02507    90.00000   360.00000     0.00197
    20.20000    90.00000   360.00000     0.02516    90.00000   360.00000     0.00207
    20.30000    90.00000   360.00000     0.02525    90.00000   360.00000     0.00217
    20.40000    90.00000   360.00000     0.02534    90.00000   360.00000     0.00226
    20.50000    90.00000   360.00000     0.02542    90.00000   360.00000     0.00236
    20.60000    90.00000   360.00000     0.02551    90.00000   360.00000     0.00246
    20.70000    90.00000   360.00000     0.02560    90.00000   360.00000     0.00255
    20.80000    90.00000   360.00000     0.02569    90.00000   360.00000     0.00265
    20.90000    90.00000   360.00000     0.02578    90.00000   360.00000     0.00275
    21.00000    90.00000   360.00000     0.02587    90.00000   360.00000     0.00284
    21.10000    90.00000   360.00000     0.02596    90.00000   360.00000     0.00294
    21.20000    90.00000   360.00000     0.02605    90.00000   360.00000     0.00304
    21.30000    90.00000   360.00000     0.02614    90.00000   360.00000     0.00313
    21.40000    90.00000   360.00000     0.02622    90.00000   360.00000     0.00323
    21.50000    90.00000   360.00000     0.02631    90.00000   360.00000     0.00333
    21.60000    90.00000   360.00000     0.02640    90.00000   360.00000     0.00342
    21.70000    90.00000   360.00000     0.02649    90.00000   360.00000     0.00352
    21.80000    90.00000   360.00000     0.02658    90.00000   360.00000     0.00362
    21.90000    90.00000   360.00000     0.02667    90.00000   360.00000     0.00372
    22.00000    90.00000   360.00000     0.02676    90.00000   360.00000     0.00381
    22.10000    90.00000   360.00000     0.02685    90.00000   360.00000     0.00391
    22.20000    90.00000   360.00000     0.02694    90.00000   360.00000     0.00401
    22.30000    90.00000   360.00000     0.02702    90.00000   360.00000     0.00410
    22.40000    90.00000   360.00000     0.02711    90.00000   360.00000     0.00420
    22.50000    90.00000   360.00000     0.02720    90.00000   360.00000     0.00430
    22.60000    90.00000   360.00000     0.02729    90.00000   360.00000     0.00439
    22.70000    90.00000   360.00000     0.02738    90.00000   360.00000     0.00449
    22.80000    90.00000   360.00000     0.02747    90.00000   360.00000     0.00459
    22.90000    90.00000   360.00000     0.02756    90.00000   360.00000     0.00468
    23.00000    90.00000   360.00000     0.02765    90.00000   360.00000     0.00478
    23.10000    90.00000   360.00000     0.02773    90.00000   360.00000     0.00488
    23.20000    90.00000   360.00000     0.02782    90.00000   360.00000     0.00497
    23.30000    90.00000   360.00000     0.02791    90.00000   360.00000     0.00507
