 # applied field (T), magnetization (2 f.u.), magnetization (T)
 # T=0 1st order approx.
 # K1(0) (K, MJ/m^3)   185.921631186409        14.8271722701528     
 # K2(0) (K, MJ/m^3)  -6.59537346737270      -0.525978273548400     
 # from A20
 # K1(0) from A20 (K, MJ/m^3)   178.384061509411        7.11302712162015     
  0.000000000000000E+000  6.154199515554862E-016  2.071401070075743E-017
  0.100000000000000       0.128041265705395       4.309655774494241E-003
  0.200000000000000       0.298584537157739       1.004985828316694E-002
  0.300000000000000       0.426621585627092       1.435937211251906E-002
  0.400000000000000       0.554655017965863       1.866876422893780E-002
  0.500000000000000       0.725182232893542       2.440842630172945E-002
  0.600000000000000       0.853203013902362       2.871739259545046E-002
  0.700000000000000       0.981216562973463       3.302611547419135E-002
  0.800000000000000        1.15171166629659       3.876469672384981E-002
  0.900000000000000        1.27970413107813       4.307270994051594E-002
   1.00000000000000        1.40768574876156       4.738035806192380E-002
   1.10000000000000        1.57813268828908       5.311731819842982E-002
   1.20000000000000        1.70608479061318       5.742397288199494E-002
   1.30000000000000        1.83402243164850       6.173014082266226E-002
   1.40000000000000        2.00440515952078       6.746493970178595E-002
   1.50000000000000        2.13230485677148       7.176983051785107E-002
   1.60000000000000        2.26018647983486       7.607411298687067E-002
   1.70000000000000        2.43048895396417       8.180621065865373E-002
   1.80000000000000        2.55832420821537       8.610893243067376E-002
   1.90000000000000        2.72856097147191       9.183881838390875E-002
   2.00000000000000        2.85634396250276       9.613978106296667E-002
   2.10000000000000        2.98410274159169       0.100439928808380     
   2.20000000000000        3.15423199816787       0.106166196265787     
   2.30000000000000        3.28193009651097       0.110464301598348     
   2.40000000000000        3.40960037510866       0.114761470564608     
   2.50000000000000        3.57960610567510       0.120483580342236     
   2.60000000000000        3.70720729142381       0.124778423758261     
   2.70000000000000        3.83477705210213       0.129072209458748     
   2.80000000000000        4.00464324840080       0.134789622745293     
   2.90000000000000        4.13213551029437       0.139080799965745     
   3.00000000000000        4.25959274458914       0.143370798215555     
   3.10000000000000        4.42930341085397       0.149082976620166     
   3.20000000000000        4.55667474733764       0.153370083692701     
   3.30000000000000        4.68400745680726       0.157655890644269     
   3.40000000000000        4.85354661117860       0.163362296244167     
   3.50000000000000        4.98078503145875       0.167644929578639     
   3.60000000000000        5.10798122873784       0.171926141757210     
   3.70000000000000        5.27733290467005       0.177626237145058     
   3.80000000000000        5.40442642976404       0.181903993548859     
   3.90000000000000        5.53147413961157       0.186180207887762     
   4.00000000000000        5.70062238727296       0.191873456218787     
   4.10000000000000        5.82755905105317       0.196145932931990     
   4.20000000000000        5.95444631139461       0.200416746807717     
   4.30000000000000        6.12337519905929       0.206102611846556     
   4.40000000000000        6.25014304929074       0.210369406576836     
   4.50000000000000        6.37685791225374       0.214634417843901     
   4.60000000000000        6.54555152768454       0.220312364011150     
   4.70000000000000        6.67213862705576       0.224573074968482     
   4.80000000000000        6.79866915999889       0.228831881994046     
   4.90000000000000        6.96711161182080       0.234501374412486     
   5.00000000000000        7.09350603896740       0.238755600343598     
   5.10000000000000        7.21984032550137       0.243007802041841     
   5.20000000000000        7.38801574456491       0.248668306582329     
   5.30000000000000        7.51420559508541       0.252915646804891     
   5.40000000000000        7.64033173608658       0.257160842671129     
   5.50000000000000        7.80822427682043       0.262811825998121     
   5.60000000000000        7.93419766428392       0.267051880434663     
   5.70000000000000        8.06010377889939       0.271289670579171     
   5.80000000000000        8.22769762065180       0.276930600195876     
   5.90000000000000        8.35344267759700       0.281162969407415     
   6.00000000000000        8.47911690424101       0.285392954588971     
   6.10000000000000        8.60471923421578       0.289620519848371     
   6.20000000000000        8.77190113153470       0.295247584101462     
   6.30000000000000        8.89733162887590       0.299469365760571     
   6.40000000000000        9.02268668017011       0.303688608031380     
   6.50000000000000        9.18953359136813       0.309304397209500     
   6.60000000000000        9.31470853930738       0.313517577501310     
   6.70000000000000        9.43980449837078       0.317728099159101     
   6.80000000000000        9.60630069438255       0.323332083848103     
   6.90000000000000        9.73120829502078       0.327536265674978     
   7.00000000000000        9.85603337079116       0.331737669852232     
   7.10000000000000        10.0221631530970       0.337329321666087     
   7.20000000000000        10.1467916316929       0.341524108709845     
   7.30000000000000        10.2713340565506       0.345715999328080     
   7.40000000000000        10.4370817584496       0.351294790951725     
   7.50000000000000        10.5614193643669       0.355479787705514     
   7.60000000000000        10.6856673950787       0.359661769507058     
   7.70000000000000        10.8510173829473       0.365227174738761     
   7.80000000000000        10.9750523905907       0.369401986538574     
   7.90000000000000        11.0989943092430       0.373573665117966     
   8.00000000000000        11.2228420859648       0.377742175036757     
   8.10000000000000        11.3876516935200       0.383289391967016     
   8.20000000000000        11.5112758084404       0.387450373802038     
   8.30000000000000        11.6348022780373       0.391608069058080     
   8.40000000000000        11.7991783449824       0.397140693733384     
   8.50000000000000        11.9224729916505       0.401290586215703     
   8.60000000000000        12.0456664979104       0.405437074480311     
   8.70000000000000        12.2095935085040       0.410954584666644     
   8.80000000000000        12.3325470504500       0.415092996132062     
   8.90000000000000        12.4553959654785       0.419227886029676     
   9.00000000000000        12.5781392089927       0.423359219200097     
   9.10000000000000        12.7414592719886       0.428856300541050     
   9.20000000000000        12.8639519970924       0.432979201678967     
   9.30000000000000        12.9863355757097       0.437098429127909     
   9.40000000000000        13.1491710419255       0.442579199748251     
   9.50000000000000        13.2712960084839       0.446689722745965     
   9.60000000000000        13.3933083627591       0.450796455401759     
   9.70000000000000        13.5556438473248       0.456260397472387     
   9.80000000000000        13.6773895176494       0.460358153990519     
   9.90000000000000        13.7990191193248       0.464452003831206     
   10.0000000000000        13.9205316169475       0.468541912144498     
   10.1000000000000        14.0821941476942       0.473983203710257     
   10.2000000000000        14.2034295005430       0.478063783791993     
   10.3000000000000        14.3245443056038       0.482140306435934     
   10.4000000000000        14.4856716296353       0.487563583834948     
   10.5000000000000        14.6065012702938       0.491630508319998     
   10.6000000000000        14.7272069294323       0.495693259793552     
   10.7000000000000        14.8477875785371       0.499751803637556     
   10.8000000000000        15.0081963039518       0.505150894203821     
   10.9000000000000        15.1284813977333       0.509199490147832     
   11.0000000000000        15.2486380611118       0.513243763338356     
   11.1000000000000        15.3686652696367       0.517283679294091     
   11.2000000000000        15.5283297348168       0.522657719300288     
   11.3000000000000        15.6480510383211       0.526687339002461     
   11.4000000000000        15.7676394803679       0.530712486809227     
   11.5000000000000        15.9267140826612       0.536066673012961     
   11.6000000000000        16.0459886879008       0.540081257595438     
   11.7000000000000        16.1651270359408       0.544091255987484     
   11.8000000000000        16.2841281098116       0.548096633959600     
   11.9000000000000        16.4424133086522       0.553424250157724     
   12.0000000000000        16.5610902719216       0.557418719106744     
   12.1000000000000        16.6796265797392       0.561408453827492     
   12.2000000000000        16.7980212195240       0.565393420238178     
   12.3000000000000        16.9554916482748       0.570693612631929     
   12.4000000000000        17.0735519481899       0.574667325719384     
   12.5000000000000        17.1914672136313       0.578636157187978     
   12.6000000000000        17.3092364365196       0.582600073107445     
   12.7000000000000        17.4658668405503       0.587871991668025     
   12.8000000000000        17.5832915399771       0.591824311501519     
   12.9000000000000        17.7005668456266       0.595771602989253     
   13.0000000000000        17.8176917540327       0.599713832356239     
   13.1000000000000        17.9734569935501       0.604956630920071     
   13.2000000000000        18.0902272417088       0.608886923013747     
   13.3000000000000        18.2068437569848       0.612812040714607     
   13.4000000000000        18.3233055406350       0.616731950406618     
   13.5000000000000        18.4781805934619       0.621944786768890     
   13.6000000000000        18.5942776279941       0.625852419613014     
   13.7000000000000        18.7102166112082       0.629754732712974     
   13.8000000000000        18.8259965491913       0.633651692615317     
   13.9000000000000        18.9799565134975       0.638833728621896     
   14.0000000000000        19.0953616624987       0.642718073751252     
   14.1000000000000        19.2106044628799       0.646596954496420     
   14.2000000000000        19.3256839256642       0.650470337570088     
   14.3000000000000        19.4405990630276       0.654338189723738     
   14.4000000000000        19.5933987066712       0.659481171269115     
   14.5000000000000        19.7079267663584       0.663335995032794     
   14.6000000000000        19.8222872177779       0.667185177381301     
   14.7000000000000        19.9364790781698       0.671028685236576     
   14.8000000000000        20.0883085283353       0.676139011685159     
   14.9000000000000        20.2021033843411       0.679969157033934     
   15.0000000000000        20.3157263835516       0.683793517969180     
   15.1000000000000        20.4291765483744       0.687612061586756     
   15.2000000000000        20.5424529024221       0.691424755023093     
   15.3000000000000        20.6930545963054       0.696493757239817     
   15.4000000000000        20.8059217997167       0.700292679347099     
   15.5000000000000        20.9186119480684       0.704085642075929     
   15.6000000000000        21.0311240702653       0.707872612740856     
   15.7000000000000        21.1434571964462       0.711653558697967     
   15.8000000000000        21.2927942700293       0.716679995901379     
   15.9000000000000        21.4047061806081       0.720446764442785     
   16.0000000000000        21.5164358728786       0.724207399819382     
   16.1000000000000        21.6279823823949       0.727961869569530     
   16.2000000000000        21.7393447459735       0.731710141274074     
   16.3000000000000        21.8873805864829       0.736692781139189     
   16.4000000000000        21.9983097526698       0.740426472140943     
   16.5000000000000        22.1090515731229       0.744153857397284     
   16.6000000000000        22.2196050901961       0.747874904675446     
   16.7000000000000        22.3299693475342       0.751589581786099     
   16.8000000000000        22.4766675991786       0.756527200637524     
   16.9000000000000        22.5865867623849       0.760226896620922     
   17.0000000000000        22.6963134890558       0.763920115511010     
   17.1000000000000        22.8058468284952       0.767606825308932     
   17.2000000000000        22.9151858313251       0.771286994060212     
   17.3000000000000        23.0243295494915       0.774960589854931     
   17.4000000000000        23.1693924998512       0.779843167188407     
   17.5000000000000        23.2780771088027       0.783501310131512     
   17.6000000000000        23.3865632842401       0.787152774132989     
   17.7000000000000        23.4948500839124       0.790797527478233     
   17.8000000000000        23.6029365669198       0.794435538498128     
   17.9000000000000        23.7108217937195       0.798066775569230     
   18.0000000000000        23.8541989909876       0.802892613260955     
   18.1000000000000        23.9616112191130       0.806507929984369     
   18.2000000000000        24.0688190708290       0.810116367738195     
   18.3000000000000        24.1758216125393       0.813717895099134     
   18.4000000000000        24.2826179120322       0.817312480690497     
   18.5000000000000        24.3892070384864       0.820900093182381     
   18.6000000000000        24.5308484920780       0.825667508632517     
   18.7000000000000        24.6369508591176       0.829238737613116     
   18.8000000000000        24.7428429622643       0.832802889461237     
   18.9000000000000        24.8485238767868       0.836359933051961     
   19.0000000000000        24.9539926793716       0.839909837308097     
   19.1000000000000        25.0592484481287       0.843452571200360     
   19.2000000000000        25.1642902625966       0.846988103747552     
   19.3000000000000        25.2691172037477       0.850516404016732     
   19.4000000000000        25.4083993060694       0.855204407632186     
   19.5000000000000        25.5127215815656       0.858715721695851     
   19.6000000000000        25.6168259325681       0.862219700783969     
   19.7000000000000        25.7207114463292       0.865716314174974     
   19.8000000000000        25.8243772115632       0.869205531196509     
   19.9000000000000        25.9278223184519       0.872687321225605     
   20.0000000000000        26.0310458586494       0.876161653688855     
   20.1000000000000        26.1340469252879       0.879628498062600     
   20.2000000000000        26.2708850395419       0.884234241109708     
   20.3000000000000        26.3733637695087       0.887683504500939     
   20.4000000000000        26.4756170156346       0.891125178481585     
   20.5000000000000        26.5776438775224       0.894559232745778     
   20.6000000000000        26.6794434562810       0.897985637038338     
   20.7000000000000        26.7810148545305       0.901404361154959     
   20.8000000000000        26.8823571764082       0.904815374942386     
   20.9000000000000        26.9834695275730       0.908218648298593     
   21.0000000000000        27.0843510152115       0.911614151172962     
   21.1000000000000        27.1850007480425       0.915001853566462     
   21.2000000000000        27.2854178363233       0.918381725531822     
   21.3000000000000        27.4187982088933       0.922871086752081     
   21.4000000000000        27.5186693165679       0.926232581919470     
   21.5000000000000        27.6183048269804       0.929586147275360     
   21.6000000000000        27.7177038571175       0.932931753098995     
   21.7000000000000        27.8168655255318       0.936269369722322     
   21.8000000000000        27.9157889523472       0.939598967530178     
   21.9000000000000        28.0144732592641       0.942920516960457     
   22.0000000000000        28.1129175695642       0.946233988504288     
   22.1000000000000        28.2111210081164       0.949539352706212     
   22.2000000000000        28.3090827013815       0.952836580164355     
   22.3000000000000        28.4068017774174       0.956125641530599     
   22.4000000000000        28.5042773658846       0.959406507510761     
   22.5000000000000        28.6015085980507       0.962679148864761     
   22.6000000000000        28.6984946067961       0.965943536406794     
   22.7000000000000        28.7952345266188       0.969199641005502     
   22.8000000000000        28.8917274936392       0.972447433584143     
   22.9000000000000        28.9879726456058       0.975686885120762     
   23.0000000000000        29.1157724963415       0.979988415269408     
   23.1000000000000        29.2114364111516       0.983208303331281     
   23.2000000000000        29.3068496505429       0.986419754076013     
   23.3000000000000        29.4020113593771       0.989622738721072     
   23.4000000000000        29.4969206841698       0.992817228539588     
   23.5000000000000        29.5915767730947       0.996003194860514     
   23.6000000000000        29.6859787759890       0.999180609068787     
   23.7000000000000        29.7801258443579        1.00234944260548     
   23.8000000000000        29.8740171313789        1.00550966696796     
   23.9000000000000        29.9676517919068        1.00866125371004     
   24.0000000000000        30.0610289824778        1.01180417444214     
   24.1000000000000        30.1541478613142        1.01493840083144     
   24.2000000000000        30.2470075883289        1.01806390460197     
   24.3000000000000        30.3396073251294        1.02118065753487     
   24.4000000000000        30.4319462350220        1.02428863146840     
   24.5000000000000        30.5240234830164        1.02738779829819     
   24.6000000000000        30.6158382358293        1.03047812997731     
   24.7000000000000        30.7073896618887        1.03355959851643     
   24.8000000000000        30.7986769313376        1.03663217598394     
   24.9000000000000        30.8896992160380        1.03969583450611     
   25.0000000000000        30.9804556895745        1.04275054626715     
   25.1000000000000        31.0709455272581        1.04579628350942     
   25.2000000000000        31.1611679061293        1.04883301853347     
   25.3000000000000        31.2511220049619        1.05186072369819     
   25.4000000000000        31.3110733643755        1.05387858661810     
   25.5000000000000        31.4005781199379        1.05689116763664     
   25.6000000000000        31.4898124119930        1.05989464530393     
   25.7000000000000        31.5787754256964        1.06288899219368     
   25.8000000000000        31.6674663479518        1.06587418093839     
   25.9000000000000        31.7558843674128        1.06885018422952     
   26.0000000000000        31.8440286744861        1.07181697481749     
   26.1000000000000        31.9318984613337        1.07477452551184     
   26.2000000000000        32.0194929218755        1.07772280918123     
   26.3000000000000        32.1068112517908        1.08066179875358     
   26.4000000000000        32.1938526485208        1.08359146721610     
   26.5000000000000        32.2806163112702        1.08651178761534     
   26.6000000000000        32.3671014410088        1.08942273305728     
   26.7000000000000        32.4533072404731        1.09232427670736     
   26.8000000000000        32.5392329141672        1.09521639179052     
