 # applied field (T), theta (degree), phi (degree), abs for RE 1-2
     0.00000    90.00000   225.42797     3.39496    90.00000   225.42797     3.39496
     0.10000    90.64009   224.57203     3.39492    90.64009   224.57203     3.39492
     0.20000    91.32957   224.57203     3.39476    91.32957   224.57203     3.39476
     0.30000    91.96988   224.57203     3.39453    91.96988   224.57203     3.39453
     0.40000    92.61039   224.57203     3.39420    92.61039   224.57203     3.39420
     0.50000    93.25118   225.42797     3.39378    93.25118   225.42797     3.39378
     0.60000    93.94172   225.42797     3.39322    93.94172   225.42797     3.39322
     0.70000    94.58330   224.57203     3.39261    94.58330   224.57203     3.39261
     0.80000    95.22536   224.57202     3.39191    95.22536   224.57202     3.39191
     0.90000    95.91750   225.00000     3.39106    95.91750   225.00000     3.39106
     1.00000    96.56078   225.00000     3.39017    96.56078   225.00000     3.39017
     1.10000    97.20474   225.00000     3.38919    97.20474   225.00000     3.38919
     1.20000    97.89916   225.00000     3.38804    97.89916   225.00000     3.38804
     1.30000    98.54475   225.00000     3.38688    98.54475   225.00000     3.38688
     1.40000    99.24109   224.56370     3.38553    99.24109   224.56370     3.38553
     1.50000    99.93853   225.43630     3.38409    99.93853   225.43630     3.38409
     1.60000   100.58715   225.43631     3.38266   100.58715   225.43631     3.38266
     1.70000   101.28695   224.56369     3.38102   101.28695   224.56369     3.38102
     1.80000   101.98810   225.00000     3.37929   101.98810   225.00000     3.37929
     1.90000   102.64035   225.00000     3.37759   102.64035   225.00000     3.37759
     2.00000   103.34431   225.44496     3.37567   103.34431   225.44496     3.37567
     2.10000   104.04982   224.55503     3.37366   104.04982   224.55503     3.37366
     2.20000   104.75697   224.55503     3.37156   104.75697   224.55503     3.37156
     2.30000   105.46583   225.00000     3.36937   105.46583   225.00000     3.36937
     2.40000   106.22737   225.00000     3.36692   106.22737   225.00000     3.36692
     2.50000   106.94001   224.54602     3.36455   106.94001   224.54602     3.36455
     2.60000   107.65457   224.54602     3.36209   107.65457   224.54602     3.36209
     2.70000   108.42246   225.00000     3.35937   108.42246   225.00000     3.35937
     2.80000   109.14124   225.00000     3.35674   109.14124   225.00000     3.35674
     2.90000   109.91380   225.46337     3.35384   109.91380   225.46337     3.35384
     3.00000   110.68888   225.00000     3.35084   110.68888   225.00000     3.35084
     3.10000   111.46657   225.00000     3.34777   111.46657   225.00000     3.34777
     3.20000   112.24694   224.52686     3.34461   112.24694   224.52686     3.34461
     3.30000   113.03006   225.00000     3.34136   113.03006   225.00000     3.34136
     3.40000   113.86857   225.00000     3.33782   113.86857   225.00000     3.33782
     3.50000   114.65760   224.51666     3.33442   114.65760   224.51666     3.33442
     3.60000   115.50256   225.00000     3.33071   115.50256   225.00000     3.33071
     3.70000   116.35097   224.50601     3.32693   116.35097   224.50601     3.32693
     3.80000   117.20290   225.00000     3.32307   117.20290   225.00000     3.32307
     3.90000   118.05841   225.00000     3.31914   118.05841   225.00000     3.31914
     4.00000   118.97146   224.49488     3.31490   118.97146   224.49488     3.31490
     4.10000   119.88870   225.00000     3.31058   119.88870   225.00000     3.31058
     4.20000   120.81023   224.48325     3.30620   120.81023   224.48325     3.30620
     4.30000   121.73608   225.00000     3.30175   121.73608   225.00000     3.30175
     4.40000   122.66635   224.47106     3.29725   122.66635   224.47106     3.29725
     4.50000   123.65624   224.45830     3.29244   123.65624   224.45830     3.29244
     4.60000   124.65119   225.00000     3.28757   124.65119   225.00000     3.28757
     4.70000   125.70702   224.44490     3.28238   125.70702   224.44490     3.28238
     4.80000   126.76859   225.00000     3.27715   126.76859   225.00000     3.27715
     4.90000   127.83597   225.00000     3.27189   127.83597   225.00000     3.27189
     5.00000   128.96588   225.58398     3.26632   128.96588   225.58398     3.26632
     5.10000   130.10231   225.00000     3.26073   130.10231   225.00000     3.26073
     5.20000   131.24527   225.00000     3.25513   131.24527   225.00000     3.25513
     5.30000   132.51018   225.00000     3.24896   132.51018   225.00000     3.24896
     5.40000   133.72497   224.36659     3.24309   133.72497   224.36659     3.24309
     5.50000   135.06381   224.34821     3.23668   135.06381   224.34821     3.23668
     5.60000   136.41129   225.67127     3.23030   136.41129   225.67127     3.23030
     5.70000   137.76737   224.30806     3.22397   137.76737   224.30806     3.22397
     5.80000   139.25109   225.71393     3.21717   139.25109   225.71393     3.21717
     5.90000   140.80476   224.26263     3.21019   140.80476   224.26263     3.21019
     6.00000   142.42945   224.23761     3.20308   142.42945   224.23761     3.20308
     6.10000   144.12622   225.00000     3.19586   144.12622   225.00000     3.19586
     6.20000   145.89609   225.00000     3.18857   145.89609   225.00000     3.18857
     6.30000   147.86342   224.11792     3.18080   147.86342   224.11792     3.18080
     6.40000   149.90743   225.00000     3.17310   149.90743   225.00000     3.17310
     6.50000   152.21681   225.00000     3.16489   152.21681   225.00000     3.16489
     6.60000   154.67003   225.00000     3.15679   154.67003   225.00000     3.15679
     6.70000   157.45960   225.00000     3.14838   157.45960   225.00000     3.14838
     6.80000   160.71923   223.54855     3.13968   160.71923   223.54855     3.13968
     6.90000   164.71498   223.20013     3.13076   164.71498   223.20013     3.13076
     7.00000   170.30509   225.00000     3.12163   170.30509   225.00000     3.12163
     7.10000   180.00000   360.00000     3.11542   180.00000   360.00000     3.11542
     7.20000   180.00000   360.00000     3.11540   180.00000   360.00000     3.11540
     7.30000   180.00000   180.00000     3.11538   180.00000   180.00000     3.11538
     7.40000   180.00000   180.00000     3.11536   180.00000   180.00000     3.11536
     7.50000   180.00000   360.00000     3.11534   180.00000   360.00000     3.11534
     7.60000   180.00000   180.00000     3.11532   180.00000   180.00000     3.11532
     7.70000   180.00000   180.00000     3.11530   180.00000   180.00000     3.11530
     7.80000   180.00000   360.00000     3.11528   180.00000   360.00000     3.11528
     7.90000   180.00000   360.00000     3.11527   180.00000   360.00000     3.11527
     8.00000   180.00000   180.00000     3.11525   180.00000   180.00000     3.11525
     8.10000   180.00000   360.00000     3.11523   180.00000   360.00000     3.11523
     8.20000   180.00000   360.00000     3.11521   180.00000   360.00000     3.11521
     8.30000   180.00000   360.00000     3.11519   180.00000   360.00000     3.11519
     8.40000   180.00000   360.00000     3.11517   180.00000   360.00000     3.11517
     8.50000   180.00000   180.00000     3.11515   180.00000   180.00000     3.11515
     8.60000   180.00000   180.00000     3.11513   180.00000   180.00000     3.11513
     8.70000   180.00000   360.00000     3.11511   180.00000   360.00000     3.11511
     8.80000   180.00000   180.00000     3.11509   180.00000   180.00000     3.11509
     8.90000   180.00000   180.00000     3.11507   180.00000   180.00000     3.11507
     9.00000   180.00000   180.00000     3.11505   180.00000   180.00000     3.11505
     9.10000   180.00000   180.00000     3.11503   180.00000   180.00000     3.11503
     9.20000   180.00000   180.00000     3.11501   180.00000   180.00000     3.11501
     9.30000   180.00000   360.00000     3.11499   180.00000   360.00000     3.11499
     9.40000   180.00000   360.00000     3.11498   180.00000   360.00000     3.11498
     9.50000   180.00000   360.00000     3.11496   180.00000   360.00000     3.11496
     9.60000   180.00000   360.00000     3.11494   180.00000   360.00000     3.11494
     9.70000   180.00000   360.00000     3.11492   180.00000   360.00000     3.11492
     9.80000   180.00000   180.00000     3.11490   180.00000   180.00000     3.11490
     9.90000   180.00000   360.00000     3.11488   180.00000   360.00000     3.11488
    10.00000   180.00000   180.00000     3.11486   180.00000   180.00000     3.11486
    10.10000   180.00000   180.00000     3.11484   180.00000   180.00000     3.11484
    10.20000   180.00000   180.00000     3.11482   180.00000   180.00000     3.11482
    10.30000   180.00000   360.00000     3.11480   180.00000   360.00000     3.11480
    10.40000   180.00000   180.00000     3.11478   180.00000   180.00000     3.11478
    10.50000   180.00000   360.00000     3.11476   180.00000   360.00000     3.11476
    10.60000   180.00000   180.00000     3.11474   180.00000   180.00000     3.11474
    10.70000   180.00000   360.00000     3.11472   180.00000   360.00000     3.11472
    10.80000   180.00000   360.00000     3.11470   180.00000   360.00000     3.11470
    10.90000   180.00000   360.00000     3.11468   180.00000   360.00000     3.11468
    11.00000   180.00000   180.00000     3.11466   180.00000   180.00000     3.11466
    11.10000   180.00000   180.00000     3.11464   180.00000   180.00000     3.11464
    11.20000   180.00000   360.00000     3.11462   180.00000   360.00000     3.11462
    11.30000   180.00000   360.00000     3.11460   180.00000   360.00000     3.11460
    11.40000   180.00000   180.00000     3.11458   180.00000   180.00000     3.11458
    11.50000   180.00000   180.00000     3.11456   180.00000   180.00000     3.11456
    11.60000   180.00000   180.00000     3.11454   180.00000   180.00000     3.11454
    11.70000   180.00000   360.00000     3.11452   180.00000   360.00000     3.11452
    11.80000   180.00000   360.00000     3.11450   180.00000   360.00000     3.11450
    11.90000   180.00000   360.00000     3.11448   180.00000   360.00000     3.11448
    12.00000   180.00000   180.00000     3.11446   180.00000   180.00000     3.11446
    12.10000   180.00000   360.00000     3.11444   180.00000   360.00000     3.11444
    12.20000   180.00000   180.00000     3.11442   180.00000   180.00000     3.11442
    12.30000   180.00000   180.00000     3.11440   180.00000   180.00000     3.11440
    12.40000   180.00000   360.00000     3.11438   180.00000   360.00000     3.11438
    12.50000   180.00000   180.00000     3.11436   180.00000   180.00000     3.11436
    12.60000   180.00000   180.00000     3.11434   180.00000   180.00000     3.11434
    12.70000   180.00000   360.00000     3.11432   180.00000   360.00000     3.11432
    12.80000   180.00000   180.00000     3.11430   180.00000   180.00000     3.11430
    12.90000   180.00000   180.00000     3.11428   180.00000   180.00000     3.11428
    13.00000   180.00000   180.00000     3.11426   180.00000   180.00000     3.11426
    13.10000   180.00000   180.00000     3.11424   180.00000   180.00000     3.11424
    13.20000   180.00000   360.00000     3.11422   180.00000   360.00000     3.11422
    13.30000   180.00000   360.00000     3.11420   180.00000   360.00000     3.11420
    13.40000   180.00000   360.00000     3.11418   180.00000   360.00000     3.11418
    13.50000   180.00000   360.00000     3.11416   180.00000   360.00000     3.11416
    13.60000   180.00000   180.00000     3.11414   180.00000   180.00000     3.11414
    13.70000   180.00000   180.00000     3.11412   180.00000   180.00000     3.11412
    13.80000   180.00000   180.00000     3.11410   180.00000   180.00000     3.11410
    13.90000   180.00000   180.00000     3.11408   180.00000   180.00000     3.11408
    14.00000   180.00000   360.00000     3.11405   180.00000   360.00000     3.11405
    14.10000   180.00000   180.00000     3.11403   180.00000   180.00000     3.11403
    14.20000   180.00000   180.00000     3.11401   180.00000   180.00000     3.11401
    14.30000   180.00000   360.00000     3.11399   180.00000   360.00000     3.11399
    14.40000   180.00000   180.00000     3.11397   180.00000   180.00000     3.11397
    14.50000   180.00000   360.00000     3.11395   180.00000   360.00000     3.11395
    14.60000   180.00000   360.00000     3.11393   180.00000   360.00000     3.11393
    14.70000   180.00000   360.00000     3.11391   180.00000   360.00000     3.11391
    14.80000   180.00000   180.00000     3.11389   180.00000   180.00000     3.11389
    14.90000   180.00000   180.00000     3.11387   180.00000   180.00000     3.11387
    15.00000   180.00000   180.00000     3.11385   180.00000   180.00000     3.11385
    15.10000   180.00000   360.00000     3.11383   180.00000   360.00000     3.11383
    15.20000   180.00000   360.00000     3.11381   180.00000   360.00000     3.11381
    15.30000   180.00000   360.00000     3.11379   180.00000   360.00000     3.11379
    15.40000   180.00000   360.00000     3.11377   180.00000   360.00000     3.11377
    15.50000   180.00000   360.00000     3.11374   180.00000   360.00000     3.11374
    15.60000   180.00000   360.00000     3.11372   180.00000   360.00000     3.11372
    15.70000   180.00000   360.00000     3.11370   180.00000   360.00000     3.11370
    15.80000   180.00000   360.00000     3.11368   180.00000   360.00000     3.11368
    15.90000   180.00000   180.00000     3.11366   180.00000   180.00000     3.11366
    16.00000   180.00000   360.00000     3.11364   180.00000   360.00000     3.11364
    16.10000   180.00000   360.00000     3.11362   180.00000   360.00000     3.11362
    16.20000   180.00000   180.00000     3.11360   180.00000   180.00000     3.11360
    16.30000   180.00000   180.00000     3.11358   180.00000   180.00000     3.11358
    16.40000   180.00000   360.00000     3.11356   180.00000   360.00000     3.11356
    16.50000   180.00000   180.00000     3.11353   180.00000   180.00000     3.11353
    16.60000   180.00000   180.00000     3.11351   180.00000   180.00000     3.11351
    16.70000   180.00000   180.00000     3.11349   180.00000   180.00000     3.11349
    16.80000   180.00000   360.00000     3.11347   180.00000   360.00000     3.11347
    16.90000   180.00000   180.00000     3.11345   180.00000   180.00000     3.11345
    17.00000   180.00000   180.00000     3.11343   180.00000   180.00000     3.11343
    17.10000   180.00000   360.00000     3.11341   180.00000   360.00000     3.11341
    17.20000   180.00000   180.00000     3.11339   180.00000   180.00000     3.11339
    17.30000   180.00000   180.00000     3.11337   180.00000   180.00000     3.11337
    17.40000   180.00000   360.00000     3.11334   180.00000   360.00000     3.11334
    17.50000   180.00000   360.00000     3.11332   180.00000   360.00000     3.11332
    17.60000   180.00000   360.00000     3.11330   180.00000   360.00000     3.11330
    17.70000   180.00000   360.00000     3.11328   180.00000   360.00000     3.11328
    17.80000   180.00000   180.00000     3.11326   180.00000   180.00000     3.11326
    17.90000   180.00000   360.00000     3.11324   180.00000   360.00000     3.11324
    18.00000   180.00000   360.00000     3.11322   180.00000   360.00000     3.11322
    18.10000   180.00000   180.00000     3.11319   180.00000   180.00000     3.11319
    18.20000   180.00000   360.00000     3.11317   180.00000   360.00000     3.11317
    18.30000   180.00000   180.00000     3.11315   180.00000   180.00000     3.11315
    18.40000   180.00000   180.00000     3.11313   180.00000   180.00000     3.11313
    18.50000   180.00000   360.00000     3.11311   180.00000   360.00000     3.11311
    18.60000   180.00000   360.00000     3.11309   180.00000   360.00000     3.11309
    18.70000   180.00000   180.00000     3.11307   180.00000   180.00000     3.11307
    18.80000   180.00000   180.00000     3.11304   180.00000   180.00000     3.11304
    18.90000   180.00000   180.00000     3.11302   180.00000   180.00000     3.11302
    19.00000   180.00000   360.00000     3.11300   180.00000   360.00000     3.11300
    19.10000   180.00000   180.00000     3.11298   180.00000   180.00000     3.11298
    19.20000   180.00000   180.00000     3.11296   180.00000   180.00000     3.11296
    19.30000   180.00000   180.00000     3.11294   180.00000   180.00000     3.11294
    19.40000   180.00000   180.00000     3.11291   180.00000   180.00000     3.11291
    19.50000   180.00000   360.00000     3.11289   180.00000   360.00000     3.11289
    19.60000   180.00000   360.00000     3.11287   180.00000   360.00000     3.11287
    19.70000   180.00000   360.00000     3.11285   180.00000   360.00000     3.11285
    19.80000   180.00000   360.00000     3.11283   180.00000   360.00000     3.11283
    19.90000   180.00000   180.00000     3.11281   180.00000   180.00000     3.11281
    20.00000   180.00000   180.00000     3.11278   180.00000   180.00000     3.11278
    20.10000   180.00000   360.00000     3.11276   180.00000   360.00000     3.11276
    20.20000   180.00000   180.00000     3.11274   180.00000   180.00000     3.11274
    20.30000   180.00000   180.00000     3.11272   180.00000   180.00000     3.11272
    20.40000   180.00000   180.00000     3.11270   180.00000   180.00000     3.11270
    20.50000   180.00000   360.00000     3.11267   180.00000   360.00000     3.11267
    20.60000   180.00000   360.00000     3.11265   180.00000   360.00000     3.11265
    20.70000   180.00000   180.00000     3.11263   180.00000   180.00000     3.11263
    20.80000   180.00000   360.00000     3.11261   180.00000   360.00000     3.11261
    20.90000   180.00000   180.00000     3.11259   180.00000   180.00000     3.11259
    21.00000   180.00000   180.00000     3.11256   180.00000   180.00000     3.11256
    21.10000   180.00000   360.00000     3.11254   180.00000   360.00000     3.11254
    21.20000   180.00000   180.00000     3.11252   180.00000   180.00000     3.11252
    21.30000   180.00000   180.00000     3.11250   180.00000   180.00000     3.11250
    21.40000   180.00000   360.00000     3.11248   180.00000   360.00000     3.11248
    21.50000   180.00000   360.00000     3.11245   180.00000   360.00000     3.11245
    21.60000   180.00000   360.00000     3.11243   180.00000   360.00000     3.11243
    21.70000   180.00000   180.00000     3.11241   180.00000   180.00000     3.11241
    21.80000   180.00000   360.00000     3.11239   180.00000   360.00000     3.11239
    21.90000   180.00000   360.00000     3.11236   180.00000   360.00000     3.11236
    22.00000   180.00000   180.00000     3.11234   180.00000   180.00000     3.11234
    22.10000   180.00000   360.00000     3.11232   180.00000   360.00000     3.11232
    22.20000   180.00000   360.00000     3.11230   180.00000   360.00000     3.11230
    22.30000   180.00000   360.00000     3.11228   180.00000   360.00000     3.11228
    22.40000   180.00000   180.00000     3.11225   180.00000   180.00000     3.11225
    22.50000   180.00000   180.00000     3.11223   180.00000   180.00000     3.11223
    22.60000   180.00000   360.00000     3.11221   180.00000   360.00000     3.11221
    22.70000   180.00000   180.00000     3.11219   180.00000   180.00000     3.11219
    22.80000   180.00000   360.00000     3.11216   180.00000   360.00000     3.11216
    22.90000   180.00000   180.00000     3.11214   180.00000   180.00000     3.11214
    23.00000   180.00000   180.00000     3.11212   180.00000   180.00000     3.11212
    23.10000   180.00000   180.00000     3.11210   180.00000   180.00000     3.11210
    23.20000   180.00000   360.00000     3.11207   180.00000   360.00000     3.11207
    23.30000   180.00000   360.00000     3.11205   180.00000   360.00000     3.11205
