 # applied field (T), theta (degree), phi (degree), abs for RE 1-2
     0.00000   180.00000   180.00000     0.05112   180.00000   180.00000     0.05112
     0.10000   178.25115   180.00000     0.05114   178.98108   180.00000     0.05113
     0.20000   176.50390   180.00000     0.05119   177.96259   180.00000     0.05115
     0.30000   174.76123   180.00000     0.05128   176.94498   180.00000     0.05117
     0.40000   172.74132   180.00000     0.05142   175.74707   180.00000     0.05122
     0.50000   171.01579   180.00000     0.05158   174.73287   180.00000     0.05128
     0.60000   169.30143   180.00000     0.05178   173.72091   180.00000     0.05134
     0.70000   167.60018   180.00000     0.05200   172.71162   180.00000     0.05142
     0.80000   165.91389   180.00000     0.05226   171.70540   180.00000     0.05150
     0.90000   164.24427   180.00000     0.05255   170.70265   180.00000     0.05160
     1.00000   162.32428   180.00000     0.05293   169.52559   180.00000     0.05173
     1.10000   160.69612   180.00000     0.05329   168.53178   180.00000     0.05185
     1.20000   159.08924   180.00000     0.05367   167.54265   180.00000     0.05199
     1.30000   157.50481   180.00000     0.05409   166.55858   180.00000     0.05213
     1.40000   155.94385   180.00000     0.05453   165.57989   180.00000     0.05229
     1.50000   154.40725   180.00000     0.05500   164.60694   180.00000     0.05245
     1.60000   152.65112   180.00000     0.05558   163.46787   180.00000     0.05266
     1.70000   151.16970   180.00000     0.05610   162.50848   180.00000     0.05285
     1.80000   149.71455   180.00000     0.05665   161.55578   180.00000     0.05304
     1.90000   148.28603   180.00000     0.05722   160.61003   180.00000     0.05325
     2.00000   146.88437   180.00000     0.05781   159.67149   180.00000     0.05347
     2.10000   145.50971   180.00000     0.05842   158.74041   180.00000     0.05369
     2.20000   143.94504   180.00000     0.05916   157.65290   180.00000     0.05397
     2.30000   142.62890   180.00000     0.05981   156.73882   180.00000     0.05422
     2.40000   141.33959   180.00000     0.06048   155.83285   180.00000     0.05447
     2.50000   140.07688   180.00000     0.06117   154.93517   180.00000     0.05474
     2.60000   138.64202   180.00000     0.06199   153.88811   180.00000     0.05506
     2.70000   137.43598   180.00000     0.06271   153.00904   180.00000     0.05534
     2.80000   136.25551   180.00000     0.06344   152.13870   180.00000     0.05563
     2.90000   135.10017   180.00000     0.06418   151.27722   180.00000     0.05593
     3.00000   133.78855   180.00000     0.06507   150.27359   180.00000     0.05630
     3.10000   132.68609   180.00000     0.06583   149.43176   180.00000     0.05661
     3.20000   131.60723   180.00000     0.06661   148.59905   180.00000     0.05693
     3.30000   130.55144   180.00000     0.06739   147.77554   180.00000     0.05727
     3.40000   129.35332   180.00000     0.06832   146.81711   180.00000     0.05767
     3.50000   128.34566   180.00000     0.06912   146.01378   180.00000     0.05801
     3.60000   127.35932   180.00000     0.06993   145.21976   180.00000     0.05836
     3.70000   126.24006   180.00000     0.07089   144.29626   180.00000     0.05879
     3.80000   125.29802   180.00000     0.07171   143.52256   180.00000     0.05915
     3.90000   124.37553   180.00000     0.07253   142.75817   180.00000     0.05952
     4.00000   123.32858   180.00000     0.07350   141.86964   180.00000     0.05997
     4.10000   122.44659   180.00000     0.07433   141.12548   180.00000     0.06035
     4.20000   121.58243   180.00000     0.07516   140.39056   180.00000     0.06074
     4.30000   120.60142   180.00000     0.07614   139.53671   180.00000     0.06121
     4.40000   119.77409   180.00000     0.07697   138.82178   180.00000     0.06161
     4.50000   118.96296   180.00000     0.07780   138.11594   180.00000     0.06202
     4.60000   118.04184   180.00000     0.07878   137.29620   180.00000     0.06250
     4.70000   117.26412   180.00000     0.07962   136.60996   180.00000     0.06292
     4.80000   116.38073   180.00000     0.08059   135.81319   180.00000     0.06341
     4.90000   115.63424   180.00000     0.08142   135.14623   180.00000     0.06384
     5.00000   114.78609   180.00000     0.08239   134.37200   180.00000     0.06434
     5.10000   114.06877   180.00000     0.08322   133.72396   180.00000     0.06478
     5.20000   113.25353   180.00000     0.08418   132.97183   180.00000     0.06529
     5.30000   112.56346   180.00000     0.08499   132.34229   180.00000     0.06573
     5.40000   111.77898   180.00000     0.08595   131.61176   180.00000     0.06626
     5.50000   111.11436   180.00000     0.08675   131.00032   180.00000     0.06670
     5.60000   110.35861   180.00000     0.08769   130.29088   180.00000     0.06723
     5.70000   109.71779   180.00000     0.08848   129.69708   180.00000     0.06769
     5.80000   108.98891   180.00000     0.08941   129.00820   180.00000     0.06822
     5.90000   108.27377   180.00000     0.09033   128.33023   180.00000     0.06877
     6.00000   107.66660   180.00000     0.09110   127.76273   180.00000     0.06923
     6.10000   106.97574   180.00000     0.09199   127.10448   180.00000     0.06977
     6.20000   106.29732   180.00000     0.09288   126.45666   180.00000     0.07032
     6.30000   105.72059   180.00000     0.09363   125.91437   180.00000     0.07079
     6.40000   105.06416   180.00000     0.09449   125.28543   180.00000     0.07134
     6.50000   104.41900   180.00000     0.09535   124.66647   180.00000     0.07190
     6.60000   103.86989   180.00000     0.09606   124.14827   180.00000     0.07237
     6.70000   103.24472   180.00000     0.09690   123.54734   180.00000     0.07293
     6.80000   102.62982   180.00000     0.09772   122.95595   180.00000     0.07349
     6.90000   102.02487   180.00000     0.09852   122.37392   180.00000     0.07405
     7.00000   101.42957   180.00000     0.09931   121.80112   180.00000     0.07461
     7.10000   100.84362   180.00000     0.10009   121.23739   180.00000     0.07518
     7.20000   100.34377   180.00000     0.10073   120.76531   180.00000     0.07565
     7.30000    99.77446   180.00000     0.10148   120.21794   180.00000     0.07622
     7.40000    99.21374   180.00000     0.10221   119.67922   180.00000     0.07678
     7.50000    98.66138   180.00000     0.10293   119.14899   180.00000     0.07735
     7.60000    98.11715   180.00000     0.10363   118.62713   180.00000     0.07791
     7.70000    97.58083   180.00000     0.10431   118.11348   180.00000     0.07848
     7.80000    97.05222   180.00000     0.10498   117.60792   180.00000     0.07904
     7.90000    96.46212   180.00000     0.10573   117.03635   180.00000     0.07969
     8.00000    95.94939   180.00000     0.10635   116.54772   180.00000     0.08026
     8.10000    95.44381   180.00000     0.10696   116.06676   180.00000     0.08082
     8.20000    94.94520   180.00000     0.10755   115.59334   180.00000     0.08138
     8.30000    94.45343   180.00000     0.10813   115.12733   180.00000     0.08194
     8.40000    93.90439   180.00000     0.10877   114.60049   180.00000     0.08259
     8.50000    93.42679   180.00000     0.10930   114.15003   180.00000     0.08315
     8.60000    92.95563   180.00000     0.10981   113.70661   180.00000     0.08370
     8.70000    92.42963   180.00000     0.11038   113.20531   180.00000     0.08434
     8.80000    91.97186   180.00000     0.11085   112.77666   180.00000     0.08490
     8.90000    91.46090   180.00000     0.11138   112.29206   180.00000     0.08553
     9.00000    91.01610   180.00000     0.11180   111.87767   180.00000     0.08608
     9.10000    90.51972   180.00000     0.11227   111.40919   180.00000     0.08671
     9.20000    90.08756   180.00000     0.11265   111.00859   180.00000     0.08726
     9.30000    89.60541   180.00000     0.11307   110.55570   180.00000     0.08788
     9.40000    89.13072   180.00000     0.11347   110.11095   180.00000     0.08851
     9.50000    88.71744   180.00000     0.11377   109.73062   180.00000     0.08904
     9.60000    88.25662   180.00000     0.11412   109.30068   180.00000     0.08966
     9.70000    87.80312   180.00000     0.11443   108.87846   180.00000     0.09027
     9.80000    87.35691   180.00000     0.11472   108.46384   180.00000     0.09088
     9.90000    86.91798   180.00000     0.11497   108.05668   180.00000     0.09148
    10.00000    86.48633   180.00000     0.11520   107.65685   180.00000     0.09208
    10.10000    86.06197   180.00000     0.11540   107.26423   180.00000     0.09268
    10.20000    85.64492   180.00000     0.11557   106.87871   180.00000     0.09327
    10.30000    85.18825   180.00000     0.11575   106.45135   180.00000     0.09394
    10.40000    84.78682   180.00000     0.11586   106.08054   180.00000     0.09452
    10.50000    84.39284   180.00000     0.11594   105.71647   180.00000     0.09509
    10.60000    83.96221   180.00000     0.11602   105.31292   180.00000     0.09574
    10.70000    83.54110   180.00000     0.11606   104.91768   180.00000     0.09639
    10.80000    83.17182   180.00000     0.11605   104.57480   180.00000     0.09694
    10.90000    82.76916   180.00000     0.11602   104.19479   180.00000     0.09758
    11.00000    82.37646   180.00000     0.11596   103.82265   180.00000     0.09820
    11.10000    81.99390   180.00000     0.11587   103.45825   180.00000     0.09882
    11.20000    81.62169   180.00000     0.11574   103.10145   180.00000     0.09942
    11.30000    81.26005   180.00000     0.11558   102.75210   180.00000     0.10003
    11.40000    80.90920   180.00000     0.11539   102.41008   180.00000     0.10062
    11.50000    80.56939   180.00000     0.11517   102.07527   180.00000     0.10121
    11.60000    80.20751   180.00000     0.11490   101.71015   180.00000     0.10186
    11.70000    79.85972   180.00000     0.11460   101.35365   180.00000     0.10250
    11.80000    79.55704   180.00000     0.11428   101.04122   180.00000     0.10305
    11.90000    79.23710   180.00000     0.11391   100.70060   180.00000     0.10368
    12.00000    78.93230   180.00000     0.11351   100.36811   180.00000     0.10428
    12.10000    78.64301   180.00000     0.11307   100.04359   180.00000     0.10488
    12.20000    78.34466   180.00000     0.11258    99.69452   180.00000     0.10554
    12.30000    78.08899   180.00000     0.11208    99.38625   180.00000     0.10611
    12.40000    77.82822   180.00000     0.11152    99.05473   180.00000     0.10674
    12.50000    77.58772   180.00000     0.11094    98.73210   180.00000     0.10736
    12.60000    77.36791   180.00000     0.11032    98.41818   180.00000     0.10796
    12.70000    77.16917   180.00000     0.10968    98.11275   180.00000     0.10855
    12.80000    76.97742   180.00000     0.10897    97.78814   180.00000     0.10918
    12.90000    76.81129   180.00000     0.10824    97.47320   180.00000     0.10980
    13.00000    76.67115   180.00000     0.10748    97.16768   180.00000     0.11039
    13.10000    76.54907   180.00000     0.10666    96.84629   180.00000     0.11103
    13.20000    76.46386   180.00000     0.10588    96.55958   180.00000     0.11159
    13.30000    76.39770   180.00000     0.10497    96.23463   180.00000     0.11224
    13.40000    76.36886   180.00000     0.10411    95.94371   180.00000     0.11282
    13.50000    76.37222   180.00000     0.10320    95.64048   180.00000     0.11342
    13.60000    76.41472   180.00000     0.10222    95.32693   180.00000     0.11404
    13.70000    76.49783   180.00000     0.10125    95.02522   180.00000     0.11464
    13.80000    76.62145   180.00000     0.10028    94.73483   180.00000     0.11521
    13.90000    76.80792   180.00000     0.09922    94.41805   180.00000     0.11583
    14.00000    77.04516   180.00000     0.09818    94.11458   180.00000     0.11642
    14.10000    77.36737   180.00000     0.09705    93.78974   180.00000     0.11704
    14.20000    77.75190   180.00000     0.09595    93.47974   180.00000     0.11762
    14.30000    78.24649   180.00000     0.09479    93.15280   180.00000     0.11821
    14.40000    78.87255   180.00000     0.09359    92.81236   180.00000     0.11881
    14.50000    79.65425   180.00000     0.09235    92.46146   180.00000     0.11939
    14.60000    80.69204   180.00000     0.09103    92.07665   180.00000     0.11998
    14.70000    82.13134   180.00000     0.08962    91.63973   180.00000     0.12058
    14.80000    84.31841   180.00000     0.08813    91.10230   180.00000     0.12117
    14.90000    90.00000   180.00000     0.08665    90.00000   180.00000     0.12168
    15.00000    90.00000   180.00000     0.08654    90.00000   180.00000     0.12156
    15.10000    90.00000   180.00000     0.08643    90.00000   180.00000     0.12144
    15.20000    90.00000   180.00000     0.08633    90.00000   180.00000     0.12131
    15.30000    90.00000   180.00000     0.08622    90.00000   180.00000     0.12119
    15.40000    90.00000   180.00000     0.08611    90.00000   180.00000     0.12107
    15.50000    90.00000   180.00000     0.08600    90.00000   180.00000     0.12095
    15.60000    90.00000   180.00000     0.08589    90.00000   180.00000     0.12083
    15.70000    90.00000   180.00000     0.08578    90.00000   180.00000     0.12071
    15.80000    90.00000   180.00000     0.08567    90.00000   180.00000     0.12059
    15.90000    90.00000   180.00000     0.08556    90.00000   180.00000     0.12047
    16.00000    90.00000   180.00000     0.08545    90.00000   180.00000     0.12035
    16.10000    90.00000   180.00000     0.08535    90.00000   180.00000     0.12023
    16.20000    90.00000   180.00000     0.08524    90.00000   180.00000     0.12011
    16.30000    90.00000   180.00000     0.08513    90.00000   180.00000     0.11999
    16.40000    90.00000   180.00000     0.08502    90.00000   180.00000     0.11987
    16.50000    90.00000   180.00000     0.08491    90.00000   180.00000     0.11975
    16.60000    90.00000   180.00000     0.08480    90.00000   180.00000     0.11963
    16.70000    90.00000   180.00000     0.08469    90.00000   180.00000     0.11950
    16.80000    90.00000   180.00000     0.08458    90.00000   180.00000     0.11938
    16.90000    90.00000   180.00000     0.08448    90.00000   180.00000     0.11926
    17.00000    90.00000   180.00000     0.08437    90.00000   180.00000     0.11914
    17.10000    90.00000   180.00000     0.08426    90.00000   180.00000     0.11902
    17.20000    90.00000   180.00000     0.08415    90.00000   180.00000     0.11890
    17.30000    90.00000   180.00000     0.08404    90.00000   180.00000     0.11878
    17.40000    90.00000   180.00000     0.08393    90.00000   180.00000     0.11866
    17.50000    90.00000   180.00000     0.08382    90.00000   180.00000     0.11854
    17.60000    90.00000   180.00000     0.08371    90.00000   180.00000     0.11842
    17.70000    90.00000   180.00000     0.08360    90.00000   180.00000     0.11830
    17.80000    90.00000   180.00000     0.08350    90.00000   180.00000     0.11818
    17.90000    90.00000   180.00000     0.08339    90.00000   180.00000     0.11806
    18.00000    90.00000   180.00000     0.08328    90.00000   180.00000     0.11794
    18.10000    90.00000   180.00000     0.08317    90.00000   180.00000     0.11782
    18.20000    90.00000   180.00000     0.08306    90.00000   180.00000     0.11770
    18.30000    90.00000   180.00000     0.08295    90.00000   180.00000     0.11758
    18.40000    90.00000   180.00000     0.08284    90.00000   180.00000     0.11746
    18.50000    90.00000   180.00000     0.08273    90.00000   180.00000     0.11734
    18.60000    90.00000   180.00000     0.08263    90.00000   180.00000     0.11722
    18.70000    90.00000   180.00000     0.08252    90.00000   180.00000     0.11710
    18.80000    90.00000   180.00000     0.08241    90.00000   180.00000     0.11697
    18.90000    90.00000   180.00000     0.08230    90.00000   180.00000     0.11685
    19.00000    90.00000   180.00000     0.08219    90.00000   180.00000     0.11673
    19.10000    90.00000   180.00000     0.08208    90.00000   180.00000     0.11661
    19.20000    90.00000   180.00000     0.08197    90.00000   180.00000     0.11649
    19.30000    90.00000   180.00000     0.08186    90.00000   180.00000     0.11637
    19.40000    90.00000   180.00000     0.08176    90.00000   180.00000     0.11625
    19.50000    90.00000   180.00000     0.08165    90.00000   180.00000     0.11613
    19.60000    90.00000   180.00000     0.08154    90.00000   180.00000     0.11601
    19.70000    90.00000   180.00000     0.08143    90.00000   180.00000     0.11589
    19.80000    90.00000   180.00000     0.08132    90.00000   180.00000     0.11577
    19.90000    90.00000   180.00000     0.08121    90.00000   180.00000     0.11565
    20.00000    90.00000   180.00000     0.08110    90.00000   180.00000     0.11553
    20.10000    90.00000   180.00000     0.08099    90.00000   180.00000     0.11541
    20.20000    90.00000   180.00000     0.08089    90.00000   180.00000     0.11529
    20.30000    90.00000   180.00000     0.08078    90.00000   180.00000     0.11517
    20.40000    90.00000   180.00000     0.08067    90.00000   180.00000     0.11505
    20.50000    90.00000   180.00000     0.08056    90.00000   180.00000     0.11493
    20.60000    90.00000   180.00000     0.08045    90.00000   180.00000     0.11481
    20.70000    90.00000   180.00000     0.08034    90.00000   180.00000     0.11469
    20.80000    90.00000   180.00000     0.08023    90.00000   180.00000     0.11457
    20.90000    90.00000   180.00000     0.08013    90.00000   180.00000     0.11445
    21.00000    90.00000   180.00000     0.08002    90.00000   180.00000     0.11433
    21.10000    90.00000   180.00000     0.07991    90.00000   180.00000     0.11421
    21.20000    90.00000   180.00000     0.07980    90.00000   180.00000     0.11409
    21.30000    90.00000   180.00000     0.07969    90.00000   180.00000     0.11397
    21.40000    90.00000   180.00000     0.07958    90.00000   180.00000     0.11385
    21.50000    90.00000   180.00000     0.07947    90.00000   180.00000     0.11373
    21.60000    90.00000   180.00000     0.07936    90.00000   180.00000     0.11361
    21.70000    90.00000   180.00000     0.07926    90.00000   180.00000     0.11349
    21.80000    90.00000   180.00000     0.07915    90.00000   180.00000     0.11337
    21.90000    90.00000   180.00000     0.07904    90.00000   180.00000     0.11325
    22.00000    90.00000   180.00000     0.07893    90.00000   180.00000     0.11313
    22.10000    90.00000   180.00000     0.07882    90.00000   180.00000     0.11301
    22.20000    90.00000   180.00000     0.07871    90.00000   180.00000     0.11289
    22.30000    90.00000   180.00000     0.07860    90.00000   180.00000     0.11277
    22.40000    90.00000   180.00000     0.07850    90.00000   180.00000     0.11265
    22.50000    90.00000   180.00000     0.07839    90.00000   180.00000     0.11253
    22.60000    90.00000   180.00000     0.07828    90.00000   180.00000     0.11241
    22.70000    90.00000   180.00000     0.07817    90.00000   180.00000     0.11229
    22.80000    90.00000   180.00000     0.07806    90.00000   180.00000     0.11217
    22.90000    90.00000   180.00000     0.07795    90.00000   180.00000     0.11205
    23.00000    90.00000   180.00000     0.07784    90.00000   180.00000     0.11193
    23.10000    90.00000   180.00000     0.07774    90.00000   180.00000     0.11181
    23.20000    90.00000   180.00000     0.07763    90.00000   180.00000     0.11169
    23.30000    90.00000   180.00000     0.07752    90.00000   180.00000     0.11157
