 # applied field (T), theta (degree), phi (degree), abs for RE 1-2
     0.00000     0.00000     0.00000     3.56516     0.00000     0.00000     0.00000
     0.10000     0.93916   360.00000     3.56509     0.00000     0.00000     0.00000
     0.20000     1.87847   360.00000     3.56489     0.00000     0.00000     0.00000
     0.30000     2.76605   360.00000     3.56457     0.00000     0.00000     0.00000
     0.40000     3.70612   360.00000     3.56411     0.00000     0.00000     0.00000
     0.50000     4.64680   360.00000     3.56351     0.00000     0.00000     0.00000
     0.60000     5.58825   360.00000     3.56278     0.00000     0.00000     0.00000
     0.70000     6.53062   360.00000     3.56192     0.00000     0.00000     0.00000
     0.80000     7.47405   360.00000     3.56094     0.00000     0.00000     0.00000
     0.90000     8.41871   360.00000     3.55982     0.00000     0.00000     0.00000
     1.00000     9.36473   360.00000     3.55859     0.00000     0.00000     0.00000
     1.10000    10.36477   360.00000     3.55715     0.00000     0.00000     0.00000
     1.20000    11.31402   360.00000     3.55566     0.00000     0.00000     0.00000
     1.30000    12.31779   360.00000     3.55397     0.00000     0.00000     0.00000
     1.40000    13.32369   360.00000     3.55215     0.00000     0.00000     0.00000
     1.50000    14.33188   360.00000     3.55022     0.00000     0.00000     0.00000
     1.60000    15.34251   360.00000     3.54816     0.00000     0.00000     0.00000
     1.70000    16.40894   360.00000     3.54588     0.00000     0.00000     0.00000
     1.80000    17.47837   360.00000     3.54347     0.00000     0.00000     0.00000
     1.90000    18.55093   360.00000     3.54096     0.00000     0.00000     0.00000
     2.00000    19.62677   360.00000     3.53834     0.00000     0.00000     0.00000
     2.10000    20.75992   360.00000     3.53547     0.00000     0.00000     0.00000
     2.20000    21.89694   360.00000     3.53251     0.00000     0.00000     0.00000
     2.30000    23.03797   360.00000     3.52945     0.00000     0.00000     0.00000
     2.40000    24.23762   360.00000     3.52616     0.00000     0.00000     0.00000
     2.50000    25.44189   360.00000     3.52278     0.00000     0.00000     0.00000
     2.60000    26.70584   360.00000     3.51916     0.00000     0.00000     0.00000
     2.70000    27.97505   360.00000     3.51547     0.00000     0.00000     0.00000
     2.80000    29.30502   360.00000     3.51156     0.00000     0.00000     0.00000
     2.90000    30.69655   360.00000     3.50742     0.00000     0.00000     0.00000
     3.00000    32.15045   360.00000     3.50307     0.00000     0.00000     0.00000
     3.10000    33.61135   360.00000     3.49869     0.00000     0.00000     0.00000
     3.20000    35.13572   360.00000     3.49413     0.00000     0.00000     0.00000
     3.30000    36.78118   360.00000     3.48922     0.00000     0.00000     0.00000
     3.40000    38.43521   360.00000     3.48434     0.00000     0.00000     0.00000
     3.50000    40.26989   360.00000     3.47899     0.00000     0.00000     0.00000
     3.60000    42.11465   360.00000     3.47373     0.00000     0.00000     0.00000
     3.70000    44.14335   360.00000     3.46807     0.00000     0.00000     0.00000
     3.80000    46.30015   360.00000     3.46226     0.00000     0.00000     0.00000
     3.90000    48.64523   360.00000     3.45619     0.00000     0.00000     0.00000
     4.00000    51.24000   360.00000     3.44981     0.00000     0.00000     0.00000
     4.10000    54.08757   360.00000     3.44326     0.00000     0.00000     0.00000
     4.20000    57.31024   360.00000     3.43644     0.00000     0.00000     0.00000
     4.30000    61.03253   360.00000     3.42939     0.00000     0.00000     0.00000
     4.40000    65.56223   360.00000     3.42202     0.00000     0.00000     0.00000
     4.50000    71.57708   360.00000     3.41428     0.00000     0.00000     0.00000
     4.60000    81.96756   360.00000     3.40622     0.00000     0.00000     0.00000
     4.70000    90.00000   360.00000     3.40446     0.00000     0.00000     0.00000
     4.80000    90.00000   360.00000     3.40457     0.00000     0.00000     0.00000
     4.90000    90.00000   360.00000     3.40469     0.00000     0.00000     0.00000
     5.00000    90.00000   360.00000     3.40480     0.00000     0.00000     0.00000
     5.10000    90.00000   360.00000     3.40492     0.00000     0.00000     0.00000
     5.20000    90.00000   360.00000     3.40503     0.00000     0.00000     0.00000
     5.30000    90.00000   360.00000     3.40515     0.00000     0.00000     0.00000
     5.40000    90.00000   360.00000     3.40526     0.00000     0.00000     0.00000
     5.50000    90.00000   360.00000     3.40538     0.00000     0.00000     0.00000
     5.60000    90.00000   360.00000     3.40549     0.00000     0.00000     0.00000
     5.70000    90.00000   360.00000     3.40561     0.00000     0.00000     0.00000
     5.80000    90.00000   360.00000     3.40573     0.00000     0.00000     0.00000
     5.90000    90.00000   360.00000     3.40584     0.00000     0.00000     0.00000
     6.00000    90.00000   360.00000     3.40596     0.00000     0.00000     0.00000
     6.10000    90.00000   360.00000     3.40607     0.00000     0.00000     0.00000
     6.20000    90.00000   360.00000     3.40619     0.00000     0.00000     0.00000
     6.30000    90.00000   360.00000     3.40630     0.00000     0.00000     0.00000
     6.40000    90.00000   360.00000     3.40642     0.00000     0.00000     0.00000
     6.50000    90.00000   360.00000     3.40653     0.00000     0.00000     0.00000
     6.60000    90.00000   360.00000     3.40665     0.00000     0.00000     0.00000
     6.70000    90.00000   360.00000     3.40676     0.00000     0.00000     0.00000
     6.80000    90.00000   360.00000     3.40688     0.00000     0.00000     0.00000
     6.90000    90.00000   360.00000     3.40699     0.00000     0.00000     0.00000
     7.00000    90.00000   360.00000     3.40710     0.00000     0.00000     0.00000
     7.10000    90.00000   360.00000     3.40722     0.00000     0.00000     0.00000
     7.20000    90.00000   360.00000     3.40733     0.00000     0.00000     0.00000
     7.30000    90.00000   360.00000     3.40745     0.00000     0.00000     0.00000
     7.40000    90.00000   360.00000     3.40756     0.00000     0.00000     0.00000
     7.50000    90.00000   360.00000     3.40768     0.00000     0.00000     0.00000
     7.60000    90.00000   360.00000     3.40779     0.00000     0.00000     0.00000
     7.70000    90.00000   360.00000     3.40791     0.00000     0.00000     0.00000
     7.80000    90.00000   360.00000     3.40802     0.00000     0.00000     0.00000
     7.90000    90.00000   360.00000     3.40814     0.00000     0.00000     0.00000
     8.00000    90.00000   360.00000     3.40825     0.00000     0.00000     0.00000
     8.10000    90.00000   360.00000     3.40837     0.00000     0.00000     0.00000
     8.20000    90.00000   360.00000     3.40848     0.00000     0.00000     0.00000
     8.30000    90.00000   360.00000     3.40859     0.00000     0.00000     0.00000
     8.40000    90.00000   360.00000     3.40871     0.00000     0.00000     0.00000
     8.50000    90.00000   360.00000     3.40882     0.00000     0.00000     0.00000
     8.60000    90.00000   360.00000     3.40894     0.00000     0.00000     0.00000
     8.70000    90.00000   360.00000     3.40905     0.00000     0.00000     0.00000
     8.80000    90.00000   360.00000     3.40917     0.00000     0.00000     0.00000
     8.90000    90.00000   360.00000     3.40928     0.00000     0.00000     0.00000
     9.00000    90.00000   360.00000     3.40939     0.00000     0.00000     0.00000
     9.10000    90.00000   360.00000     3.40951     0.00000     0.00000     0.00000
     9.20000    90.00000   360.00000     3.40962     0.00000     0.00000     0.00000
     9.30000    90.00000   360.00000     3.40974     0.00000     0.00000     0.00000
     9.40000    90.00000   360.00000     3.40985     0.00000     0.00000     0.00000
     9.50000    90.00000   360.00000     3.40997     0.00000     0.00000     0.00000
     9.60000    90.00000   360.00000     3.41008     0.00000     0.00000     0.00000
     9.70000    90.00000   360.00000     3.41019     0.00000     0.00000     0.00000
     9.80000    90.00000   360.00000     3.41031     0.00000     0.00000     0.00000
     9.90000    90.00000   360.00000     3.41042     0.00000     0.00000     0.00000
    10.00000    90.00000   360.00000     3.41053     0.00000     0.00000     0.00000
    10.10000    90.00000   360.00000     3.41065     0.00000     0.00000     0.00000
    10.20000    90.00000   360.00000     3.41076     0.00000     0.00000     0.00000
    10.30000    90.00000   360.00000     3.41088     0.00000     0.00000     0.00000
    10.40000    90.00000   360.00000     3.41099     0.00000     0.00000     0.00000
    10.50000    90.00000   360.00000     3.41110     0.00000     0.00000     0.00000
    10.60000    90.00000   360.00000     3.41122     0.00000     0.00000     0.00000
    10.70000    90.00000   360.00000     3.41133     0.00000     0.00000     0.00000
    10.80000    90.00000   360.00000     3.41144     0.00000     0.00000     0.00000
    10.90000    90.00000   360.00000     3.41156     0.00000     0.00000     0.00000
    11.00000    90.00000   360.00000     3.41167     0.00000     0.00000     0.00000
    11.10000    90.00000   360.00000     3.41179     0.00000     0.00000     0.00000
    11.20000    90.00000   360.00000     3.41190     0.00000     0.00000     0.00000
    11.30000    90.00000   360.00000     3.41201     0.00000     0.00000     0.00000
    11.40000    90.00000   360.00000     3.41213     0.00000     0.00000     0.00000
    11.50000    90.00000   360.00000     3.41224     0.00000     0.00000     0.00000
    11.60000    90.00000   360.00000     3.41235     0.00000     0.00000     0.00000
    11.70000    90.00000   360.00000     3.41247     0.00000     0.00000     0.00000
    11.80000    90.00000   360.00000     3.41258     0.00000     0.00000     0.00000
    11.90000    90.00000   360.00000     3.41269     0.00000     0.00000     0.00000
    12.00000    90.00000   360.00000     3.41281     0.00000     0.00000     0.00000
    12.10000    90.00000   360.00000     3.41292     0.00000     0.00000     0.00000
    12.20000    90.00000   360.00000     3.41303     0.00000     0.00000     0.00000
    12.30000    90.00000   360.00000     3.41315     0.00000     0.00000     0.00000
    12.40000    90.00000   360.00000     3.41326     0.00000     0.00000     0.00000
    12.50000    90.00000   360.00000     3.41337     0.00000     0.00000     0.00000
    12.60000    90.00000   360.00000     3.41349     0.00000     0.00000     0.00000
    12.70000    90.00000   360.00000     3.41360     0.00000     0.00000     0.00000
    12.80000    90.00000   360.00000     3.41371     0.00000     0.00000     0.00000
    12.90000    90.00000   360.00000     3.41382     0.00000     0.00000     0.00000
    13.00000    90.00000   360.00000     3.41394     0.00000     0.00000     0.00000
    13.10000    90.00000   360.00000     3.41405     0.00000     0.00000     0.00000
    13.20000    90.00000   360.00000     3.41416     0.00000     0.00000     0.00000
    13.30000    90.00000   360.00000     3.41428     0.00000     0.00000     0.00000
    13.40000    90.00000   360.00000     3.41439     0.00000     0.00000     0.00000
    13.50000    90.00000   360.00000     3.41450     0.00000     0.00000     0.00000
    13.60000    90.00000   360.00000     3.41461     0.00000     0.00000     0.00000
    13.70000    90.00000   360.00000     3.41473     0.00000     0.00000     0.00000
    13.80000    90.00000   360.00000     3.41484     0.00000     0.00000     0.00000
    13.90000    90.00000   360.00000     3.41495     0.00000     0.00000     0.00000
    14.00000    90.00000   360.00000     3.41507     0.00000     0.00000     0.00000
    14.10000    90.00000   360.00000     3.41518     0.00000     0.00000     0.00000
    14.20000    90.00000   360.00000     3.41529     0.00000     0.00000     0.00000
    14.30000    90.00000   360.00000     3.41540     0.00000     0.00000     0.00000
    14.40000    90.00000   360.00000     3.41552     0.00000     0.00000     0.00000
    14.50000    90.00000   360.00000     3.41563     0.00000     0.00000     0.00000
    14.60000    90.00000   360.00000     3.41574     0.00000     0.00000     0.00000
    14.70000    90.00000   360.00000     3.41585     0.00000     0.00000     0.00000
    14.80000    90.00000   360.00000     3.41597     0.00000     0.00000     0.00000
    14.90000    90.00000   360.00000     3.41608     0.00000     0.00000     0.00000
    15.00000    90.00000   360.00000     3.41619     0.00000     0.00000     0.00000
    15.10000    90.00000   360.00000     3.41630     0.00000     0.00000     0.00000
    15.20000    90.00000   360.00000     3.41641     0.00000     0.00000     0.00000
    15.30000    90.00000   360.00000     3.41653     0.00000     0.00000     0.00000
    15.40000    90.00000   360.00000     3.41664     0.00000     0.00000     0.00000
    15.50000    90.00000   360.00000     3.41675     0.00000     0.00000     0.00000
    15.60000    90.00000   360.00000     3.41686     0.00000     0.00000     0.00000
    15.70000    90.00000   360.00000     3.41698     0.00000     0.00000     0.00000
    15.80000    90.00000   360.00000     3.41709     0.00000     0.00000     0.00000
    15.90000    90.00000   360.00000     3.41720     0.00000     0.00000     0.00000
    16.00000    90.00000   360.00000     3.41731     0.00000     0.00000     0.00000
    16.10000    90.00000   360.00000     3.41742     0.00000     0.00000     0.00000
    16.20000    90.00000   360.00000     3.41754     0.00000     0.00000     0.00000
    16.30000    90.00000   360.00000     3.41765     0.00000     0.00000     0.00000
    16.40000    90.00000   360.00000     3.41776     0.00000     0.00000     0.00000
    16.50000    90.00000   360.00000     3.41787     0.00000     0.00000     0.00000
    16.60000    90.00000   360.00000     3.41798     0.00000     0.00000     0.00000
    16.70000    90.00000   360.00000     3.41810     0.00000     0.00000     0.00000
    16.80000    90.00000   360.00000     3.41821     0.00000     0.00000     0.00000
    16.90000    90.00000   360.00000     3.41832     0.00000     0.00000     0.00000
    17.00000    90.00000   360.00000     3.41843     0.00000     0.00000     0.00000
    17.10000    90.00000   360.00000     3.41854     0.00000     0.00000     0.00000
    17.20000    90.00000   360.00000     3.41865     0.00000     0.00000     0.00000
    17.30000    90.00000   360.00000     3.41877     0.00000     0.00000     0.00000
    17.40000    90.00000   360.00000     3.41888     0.00000     0.00000     0.00000
    17.50000    90.00000   360.00000     3.41899     0.00000     0.00000     0.00000
    17.60000    90.00000   360.00000     3.41910     0.00000     0.00000     0.00000
    17.70000    90.00000   360.00000     3.41921     0.00000     0.00000     0.00000
    17.80000    90.00000   360.00000     3.41932     0.00000     0.00000     0.00000
    17.90000    90.00000   360.00000     3.41944     0.00000     0.00000     0.00000
    18.00000    90.00000   360.00000     3.41955     0.00000     0.00000     0.00000
    18.10000    90.00000   360.00000     3.41966     0.00000     0.00000     0.00000
    18.20000    90.00000   360.00000     3.41977     0.00000     0.00000     0.00000
    18.30000    90.00000   360.00000     3.41988     0.00000     0.00000     0.00000
    18.40000    90.00000   360.00000     3.41999     0.00000     0.00000     0.00000
    18.50000    90.00000   360.00000     3.42010     0.00000     0.00000     0.00000
    18.60000    90.00000   360.00000     3.42021     0.00000     0.00000     0.00000
    18.70000    90.00000   360.00000     3.42033     0.00000     0.00000     0.00000
    18.80000    90.00000   360.00000     3.42044     0.00000     0.00000     0.00000
    18.90000    90.00000   360.00000     3.42055     0.00000     0.00000     0.00000
    19.00000    90.00000   360.00000     3.42066     0.00000     0.00000     0.00000
    19.10000    90.00000   360.00000     3.42077     0.00000     0.00000     0.00000
    19.20000    90.00000   360.00000     3.42088     0.00000     0.00000     0.00000
    19.30000    90.00000   360.00000     3.42099     0.00000     0.00000     0.00000
    19.40000    90.00000   360.00000     3.42110     0.00000     0.00000     0.00000
    19.50000    90.00000   360.00000     3.42121     0.00000     0.00000     0.00000
    19.60000    90.00000   360.00000     3.42133     0.00000     0.00000     0.00000
    19.70000    90.00000   360.00000     3.42144     0.00000     0.00000     0.00000
    19.80000    90.00000   360.00000     3.42155     0.00000     0.00000     0.00000
    19.90000    90.00000   360.00000     3.42166     0.00000     0.00000     0.00000
    20.00000    90.00000   360.00000     3.42177     0.00000     0.00000     0.00000
    20.10000    90.00000   360.00000     3.42188     0.00000     0.00000     0.00000
    20.20000    90.00000   360.00000     3.42199     0.00000     0.00000     0.00000
    20.30000    90.00000   360.00000     3.42210     0.00000     0.00000     0.00000
    20.40000    90.00000   360.00000     3.42221     0.00000     0.00000     0.00000
    20.50000    90.00000   360.00000     3.42232     0.00000     0.00000     0.00000
    20.60000    90.00000   360.00000     3.42243     0.00000     0.00000     0.00000
    20.70000    90.00000   360.00000     3.42254     0.00000     0.00000     0.00000
    20.80000    90.00000   360.00000     3.42265     0.00000     0.00000     0.00000
    20.90000    90.00000   360.00000     3.42277     0.00000     0.00000     0.00000
    21.00000    90.00000   360.00000     3.42288     0.00000     0.00000     0.00000
    21.10000    90.00000   360.00000     3.42299     0.00000     0.00000     0.00000
    21.20000    90.00000   360.00000     3.42310     0.00000     0.00000     0.00000
    21.30000    90.00000   360.00000     3.42321     0.00000     0.00000     0.00000
    21.40000    90.00000   360.00000     3.42332     0.00000     0.00000     0.00000
    21.50000    90.00000   360.00000     3.42343     0.00000     0.00000     0.00000
    21.60000    90.00000   360.00000     3.42354     0.00000     0.00000     0.00000
    21.70000    90.00000   360.00000     3.42365     0.00000     0.00000     0.00000
    21.80000    90.00000   360.00000     3.42376     0.00000     0.00000     0.00000
    21.90000    90.00000   360.00000     3.42387     0.00000     0.00000     0.00000
    22.00000    90.00000   360.00000     3.42398     0.00000     0.00000     0.00000
    22.10000    90.00000   360.00000     3.42409     0.00000     0.00000     0.00000
    22.20000    90.00000   360.00000     3.42420     0.00000     0.00000     0.00000
    22.30000    90.00000   360.00000     3.42431     0.00000     0.00000     0.00000
    22.40000    90.00000   360.00000     3.42442     0.00000     0.00000     0.00000
    22.50000    90.00000   360.00000     3.42453     0.00000     0.00000     0.00000
    22.60000    90.00000   360.00000     3.42464     0.00000     0.00000     0.00000
    22.70000    90.00000   360.00000     3.42475     0.00000     0.00000     0.00000
    22.80000    90.00000   360.00000     3.42486     0.00000     0.00000     0.00000
    22.90000    90.00000   360.00000     3.42497     0.00000     0.00000     0.00000
    23.00000    90.00000   360.00000     3.42508     0.00000     0.00000     0.00000
    23.10000    90.00000   360.00000     3.42519     0.00000     0.00000     0.00000
    23.20000    90.00000   360.00000     3.42530     0.00000     0.00000     0.00000
    23.30000    90.00000   360.00000     3.42541     0.00000     0.00000     0.00000
