 # applied field (T), magnetization (2 f.u.), magnetization (T)
  0.000000000000000E+000   35.6365580965625        1.24096345132215     
  0.100000000000000        38.2388337287946        1.33158188144989     
  0.200000000000000        40.1676657780020        1.39874914463842     
  0.300000000000000        41.9529998654823        1.46091941217546     
  0.400000000000000        43.5884690028420        1.51787096792698     
  0.500000000000000        45.0682109703420        1.56939967319867     
  0.600000000000000        46.3868909544503        1.61531975503806     
  0.700000000000000        47.8014870001648        1.66457989925176     
  0.800000000000000        48.9489280740675        1.70453696893848     
  0.900000000000000        49.9640112252470        1.73988496992256     
   1.00000000000000        50.7812228745965        1.76834253830191     
   1.10000000000000        50.7812682165800        1.76834411723510     
   1.20000000000000        50.7813135621488        1.76834569629314     
   1.30000000000000        50.7813589113044        1.76834727547608     
   1.40000000000000        50.7814042640485        1.76834885478398     
   1.50000000000000        50.7814496203830        1.76835043421691     
   1.60000000000000        50.7814949803094        1.76835201377493     
   1.70000000000000        50.7815403438296        1.76835359345808     
   1.80000000000000        50.7815857109451        1.76835517326644     
   1.90000000000000        50.7816310816577        1.76835675320005     
   2.00000000000000        50.7816764559692        1.76835833325899     
   2.10000000000000        50.7817218338811        1.76835991344331     
   2.20000000000000        50.7817672153952        1.76836149375306     
   2.30000000000000        50.7818126005133        1.76836307418832     
   2.40000000000000        50.7818579892369        1.76836465474913     
   2.50000000000000        50.7819033815678        1.76836623543555     
   2.60000000000000        50.7819487775078        1.76836781624765     
   2.70000000000000        50.7819941770584        1.76836939718549     
   2.80000000000000        50.7820395802214        1.76837097824912     
   2.90000000000000        50.7820849869985        1.76837255943860     
   3.00000000000000        50.7821303973915        1.76837414075400     
   3.10000000000000        50.7821758114019        1.76837572219536     
   3.20000000000000        50.7822212290314        1.76837730376276     
   3.30000000000000        50.7822666502819        1.76837888545624     
   3.40000000000000        50.7823120751550        1.76838046727587     
   3.50000000000000        50.7823575036523        1.76838204922171     
   3.60000000000000        50.7824029357756        1.76838363129382     
   3.70000000000000        50.7824483715266        1.76838521349225     
   3.80000000000000        50.7824938109069        1.76838679581707     
   3.90000000000000        50.7825392539183        1.76838837826833     
   4.00000000000000        50.7825847005624        1.76838996084609     
   4.10000000000000        50.7826301508410        1.76839154355041     
   4.20000000000000        50.7826756047557        1.76839312638136     
   4.30000000000000        50.7827210623083        1.76839470933898     
   4.40000000000000        50.7827665235003        1.76839629242334     
   4.50000000000000        50.7828119883336        1.76839787563450     
   4.60000000000000        50.7828574568098        1.76839945897251     
   4.70000000000000        50.7829029289306        1.76840104243744     
   4.80000000000000        50.7829484046976        1.76840262602935     
   4.90000000000000        50.7829938841127        1.76840420974828     
   5.00000000000000        50.7830393671774        1.76840579359431     
   5.10000000000000        50.7830848538935        1.76840737756749     
   5.20000000000000        50.7831303442626        1.76840896166787     
   5.30000000000000        50.7831758382865        1.76841054589553     
   5.40000000000000        50.7832213359668        1.76841213025051     
   5.50000000000000        50.7832668373052        1.76841371473288     
   5.60000000000000        50.7833123423035        1.76841529934269     
   5.70000000000000        50.7833578509632        1.76841688408001     
   5.80000000000000        50.7834033632861        1.76841846894489     
   5.90000000000000        50.7834488792739        1.76842005393739     
   6.00000000000000        50.7834943989282        1.76842163905756     
   6.10000000000000        50.7835399222507        1.76842322430548     
   6.20000000000000        50.7835854492433        1.76842480968120     
   6.30000000000000        50.7836309799074        1.76842639518476     
   6.40000000000000        50.7836765142448        1.76842798081625     
   6.50000000000000        50.7837220522572        1.76842956657571     
   6.60000000000000        50.7837675939462        1.76843115246320     
   6.70000000000000        50.7838131393136        1.76843273847877     
   6.80000000000000        50.7838586883611        1.76843432462250     
   6.90000000000000        50.7839042410903        1.76843591089444     
   7.00000000000000        50.7839497975028        1.76843749729464     
   7.10000000000000        50.7839953576005        1.76843908382317     
   7.20000000000000        50.7840409213849        1.76844067048008     
   7.30000000000000        50.7840864888578        1.76844225726543     
   7.40000000000000        50.7841320600208        1.76844384417929     
   7.50000000000000        50.7841776348756        1.76844543122170     
   7.60000000000000        50.7842232134240        1.76844701839273     
   7.70000000000000        50.7842687956675        1.76844860569244     
   7.80000000000000        50.7843143816078        1.76845019312088     
   7.90000000000000        50.7843599712468        1.76845178067811     
   8.00000000000000        50.7844055645859        1.76845336836420     
   8.10000000000000        50.7844511616269        1.76845495617920     
   8.20000000000000        50.7844967623715        1.76845654412316     
   8.30000000000000        50.7845423668214        1.76845813219616     
   8.40000000000000        50.7845879749782        1.76845972039824     
   8.50000000000000        50.7846335868435        1.76846130872946     
   8.60000000000000        50.7846792024192        1.76846289718989     
   8.70000000000000        50.7847248217069        1.76846448577957     
   8.80000000000000        50.7847704447082        1.76846607449858     
   8.90000000000000        50.7848160714248        1.76846766334696     
   9.00000000000000        50.7848617018584        1.76846925232478     
   9.10000000000000        50.7849073360107        1.76847084143210     
   9.20000000000000        50.7849529738834        1.76847243066896     
   9.30000000000000        50.7849986154780        1.76847402003544     
   9.40000000000000        50.7850442607964        1.76847560953159     
   9.50000000000000        50.7850899098402        1.76847719915747     
   9.60000000000000        50.7851355626110        1.76847878891313     
   9.70000000000000        50.7851812191105        1.76848037879863     
   9.80000000000000        50.7852268793404        1.76848196881404     
   9.90000000000000        50.7852725433024        1.76848355895941     
   10.0000000000000        50.7853182109981        1.76848514923480     
   10.1000000000000        50.7853638824292        1.76848673964027     
   10.2000000000000        50.7854095575974        1.76848833017587     
   10.3000000000000        50.7854552365044        1.76848992084167     
   10.4000000000000        50.7855009191519        1.76849151163772     
   10.5000000000000        50.7855466055414        1.76849310256407     
   10.6000000000000        50.7855922956747        1.76849469362080     
   10.7000000000000        50.7856379895534        1.76849628480796     
   10.8000000000000        50.7856836871793        1.76849787612560     
   10.9000000000000        50.7857293885539        1.76849946757378     
   11.0000000000000        50.7857750936790        1.76850105915256     
   11.1000000000000        50.7858208025562        1.76850265086200     
   11.2000000000000        50.7858665151872        1.76850424270216     
   11.3000000000000        50.7859122315737        1.76850583467310     
   11.4000000000000        50.7859579517173        1.76850742677487     
   11.5000000000000        50.7860036756197        1.76850901900753     
   11.6000000000000        50.7860494032826        1.76851061137114     
   11.7000000000000        50.7860951347076        1.76851220386576     
   11.8000000000000        50.7861408698964        1.76851379649144     
   11.9000000000000        50.7861866088506        1.76851538924825     
   12.0000000000000        50.7862323515720        1.76851698213624     
   12.1000000000000        50.7862780980622        1.76851857515548     
   12.2000000000000        50.7863238483229        1.76852016830600     
   12.3000000000000        50.7863696023557        1.76852176158789     
   12.4000000000000        50.7864153601623        1.76852335500119     
   12.5000000000000        50.7864611217443        1.76852494854596     
   12.6000000000000        50.7865068871035        1.76852654222226     
   12.7000000000000        50.7865526562414        1.76852813603015     
   12.8000000000000        50.7865984291598        1.76852972996968     
   12.9000000000000        50.7866442058604        1.76853132404092     
   13.0000000000000        50.7866899863447        1.76853291824392     
   13.1000000000000        50.7867357706144        1.76853451257873     
   13.2000000000000        50.7867815586713        1.76853610704543     
   13.3000000000000        50.7868273505169        1.76853770164406     
   13.4000000000000        50.7868731461529        1.76853929637469     
   13.5000000000000        50.7869189455810        1.76854089123736     
   13.6000000000000        50.7869647488029        1.76854248623215     
   13.7000000000000        50.7870105558202        1.76854408135910     
   13.8000000000000        50.7870563666346        1.76854567661828     
   13.9000000000000        50.7871021812477        1.76854727200973     
   14.0000000000000        50.7871479996612        1.76854886753353     
   14.1000000000000        50.7871938218767        1.76855046318973     
   14.2000000000000        50.7872396478959        1.76855205897838     
   14.3000000000000        50.7872854777206        1.76855365489955     
   14.4000000000000        50.7873313113522        1.76855525095328     
   14.5000000000000        50.7873771487925        1.76855684713965     
   14.6000000000000        50.7874229900432        1.76855844345870     
   14.7000000000000        50.7874688351059        1.76856003991050     
   14.8000000000000        50.7875146839822        1.76856163649510     
   14.9000000000000        50.7875605366739        1.76856323321256     
   15.0000000000000        50.7876063931825        1.76856483006293     
   15.1000000000000        50.7876522535098        1.76856642704628     
   15.2000000000000        50.7876981176573        1.76856802416267     
   15.3000000000000        50.7877439856268        1.76856962141214     
   15.4000000000000        50.7877898574199        1.76857121879477     
   15.5000000000000        50.7878357330382        1.76857281631060     
   15.6000000000000        50.7878816124835        1.76857441395969     
   15.7000000000000        50.7879274957573        1.76857601174210     
   15.8000000000000        50.7879733828613        1.76857760965789     
   15.9000000000000        50.7880192737972        1.76857920770712     
   16.0000000000000        50.7880651685666        1.76858080588985     
   16.1000000000000        50.7881110671712        1.76858240420612     
   16.2000000000000        50.7881569696126        1.76858400265600     
   16.3000000000000        50.7882028758925        1.76858560123955     
   16.4000000000000        50.7882487860125        1.76858719995683     
   16.5000000000000        50.7882946999743        1.76858879880788     
   16.6000000000000        50.7883406177796        1.76859039779278     
   16.7000000000000        50.7883865394299        1.76859199691157     
   16.8000000000000        50.7884324649270        1.76859359616431     
   16.9000000000000        50.7884783942725        1.76859519555107     
   17.0000000000000        50.7885243274680        1.76859679507190     
   17.1000000000000        50.7885702645152        1.76859839472685     
   17.2000000000000        50.7886162054158        1.76859999451599     
   17.3000000000000        50.7886621501714        1.76860159443936     
   17.4000000000000        50.7887080987835        1.76860319449704     
   17.5000000000000        50.7887540512540        1.76860479468907     
   17.6000000000000        50.7888000075844        1.76860639501552     
   17.7000000000000        50.7888459677765        1.76860799547644     
   17.8000000000000        50.7888919318317        1.76860959607189     
   17.9000000000000        50.7889378997518        1.76861119680192     
   18.0000000000000        50.7889838715385        1.76861279766660     
   18.1000000000000        50.7890298471933        1.76861439866597     
   18.2000000000000        50.7890758267180        1.76861599980011     
   18.3000000000000        50.7891218101141        1.76861760106906     
   18.4000000000000        50.7891677973834        1.76861920247288     
   18.5000000000000        50.7892137885274        1.76862080401163     
   18.6000000000000        50.7892597835478        1.76862240568537     
   18.7000000000000        50.7893057824463        1.76862400749416     
   18.8000000000000        50.7893517852245        1.76862560943805     
   18.9000000000000        50.7893977918840        1.76862721151709     
   19.0000000000000        50.7894438024265        1.76862881373135     
   19.1000000000000        50.7894898168537        1.76863041608089     
   19.2000000000000        50.7895358351671        1.76863201856576     
   19.3000000000000        50.7895818573684        1.76863362118601     
   19.4000000000000        50.7896278834594        1.76863522394171     
   19.5000000000000        50.7896739134415        1.76863682683291     
   19.6000000000000        50.7897199473165        1.76863842985968     
   19.7000000000000        50.7897659850859        1.76864003302206     
   19.8000000000000        50.7898120267515        1.76864163632011     
   19.9000000000000        50.7898580723149        1.76864323975390     
   20.0000000000000        50.7899041217777        1.76864484332347     
   20.1000000000000        50.7899501751415        1.76864644702889     
   20.2000000000000        50.7899962324081        1.76864805087021     
   20.3000000000000        50.7900422935790        1.76864965484749     
   20.4000000000000        50.7900883586559        1.76865125896079     
   20.5000000000000        50.7901344276404        1.76865286321017     
   20.6000000000000        50.7901805005341        1.76865446759567     
   20.7000000000000        50.7902265773388        1.76865607211737     
   20.8000000000000        50.7902726580560        1.76865767677530     
   20.9000000000000        50.7903187426874        1.76865928156955     
   21.0000000000000        50.7903648312346        1.76866088650015     
   21.1000000000000        50.7904109236992        1.76866249156716     
   21.2000000000000        50.7904570200830        1.76866409677066     
   21.3000000000000        50.7905031203875        1.76866570211068     
   21.4000000000000        50.7905492246143        1.76866730758729     
   21.5000000000000        50.7905953327652        1.76866891320054     
   21.6000000000000        50.7906414448417        1.76867051895050     
   21.7000000000000        50.7906875608455        1.76867212483721     
   21.8000000000000        50.7907336807782        1.76867373086074     
   21.9000000000000        50.7907798046414        1.76867533702115     
   22.0000000000000        50.7908259324369        1.76867694331848     
   22.1000000000000        50.7908720641662        1.76867854975280     
   22.2000000000000        50.7909181998309        1.76868015632416     
   22.3000000000000        50.7909643394327        1.76868176303263     
   22.4000000000000        50.7910104829733        1.76868336987825     
   22.5000000000000        50.7910566304542        1.76868497686109     
   22.6000000000000        50.7911027818771        1.76868658398119     
   22.7000000000000        50.7911489372437        1.76868819123863     
   22.8000000000000        50.7911950965555        1.76868979863345     
   22.9000000000000        50.7912412598142        1.76869140616571     
   23.0000000000000        50.7912874270214        1.76869301383547     
   23.1000000000000        50.7913335981789        1.76869462164279     
   23.2000000000000        50.7913797732881        1.76869622958772     
   23.3000000000000        50.7914259523507        1.76869783767032     
   23.4000000000000        50.7914721353684        1.76869944589064     
   23.5000000000000        50.7915183223428        1.76870105424875     
   23.6000000000000        50.7915645132755        1.76870266274470     
   23.7000000000000        50.7916107081682        1.76870427137854     
   23.8000000000000        50.7916569070224        1.76870588015034     
   23.9000000000000        50.7917031098399        1.76870748906015     
   24.0000000000000        50.7917493166222        1.76870909810802     
   24.1000000000000        50.7917955273710        1.76871070729402     
   24.2000000000000        50.7918417420879        1.76871231661820     
   24.3000000000000        50.7918879607745        1.76871392608061     
   24.4000000000000        50.7919341834326        1.76871553568132     
   24.5000000000000        50.7919804100635        1.76871714542038     
   24.6000000000000        50.7920266406692        1.76871875529785     
   24.7000000000000        50.7920728752510        1.76872036531378     
   24.8000000000000        50.7921191138108        1.76872197546823     
   24.9000000000000        50.7921653563500        1.76872358576126     
   25.0000000000000        50.7922116028704        1.76872519619293     
   25.1000000000000        50.7922578533735        1.76872680676328     
   25.2000000000000        50.7923041078611        1.76872841747238     
   25.3000000000000        50.7923503663346        1.76873002832029     
   25.4000000000000        50.7923966287958        1.76873163930706     
   25.5000000000000        50.7924428952463        1.76873325043274     
   25.6000000000000        50.7924891656876        1.76873486169740     
   25.7000000000000        50.7925354401215        1.76873647310109     
   25.8000000000000        50.7925817185495        1.76873808464386     
   25.9000000000000        50.7926280009733        1.76873969632578     
   26.0000000000000        50.7926742873945        1.76874130814690     
   26.1000000000000        50.7927205778146        1.76874292010728     
   26.2000000000000        50.7927668722355        1.76874453220697     
   26.3000000000000        50.7928131706586        1.76874614444603     
   26.4000000000000        50.7928594730856        1.76874775682451     
   26.5000000000000        50.7929057795181        1.76874936934248     
   26.6000000000000        50.7929520899577        1.76875098199999     
   26.7000000000000        50.7929984044061        1.76875259479710     
   26.8000000000000        50.7930447228649        1.76875420773386     
   26.9000000000000        50.7930910453357        1.76875582081032     
   27.0000000000000        50.7931373718201        1.76875743402655     
   27.1000000000000        50.7931837023198        1.76875904738261     
   27.2000000000000        50.7932300368363        1.76876066087854     
