 # applied field (T), theta (degree), phi (degree), abs for RE 1-2
     0.00000   180.00000   180.00000     3.88929     0.00000     0.00000     0.00000
     0.10000   179.77096   180.00000     3.88929     0.00000     0.00000     0.00000
     0.20000   179.49594   180.00000     3.88926     0.00000     0.00000     0.00000
     0.30000   179.26689   180.00000     3.88922     0.00000     0.00000     0.00000
     0.40000   179.03783   180.00000     3.88917     0.00000     0.00000     0.00000
     0.50000   178.76275   180.00000     3.88908     0.00000     0.00000     0.00000
     0.60000   178.53365   180.00000     3.88899     0.00000     0.00000     0.00000
     0.70000   178.30452   180.00000     3.88889     0.00000     0.00000     0.00000
     0.80000   178.02934   180.00000     3.88875     0.00000     0.00000     0.00000
     0.90000   177.80014   180.00000     3.88862     0.00000     0.00000     0.00000
     1.00000   177.57090   180.00000     3.88847     0.00000     0.00000     0.00000
     1.10000   177.29558   180.00000     3.88828     0.00000     0.00000     0.00000
     1.20000   177.06625   180.00000     3.88810     0.00000     0.00000     0.00000
     1.30000   176.83686   180.00000     3.88790     0.00000     0.00000     0.00000
     1.40000   176.56135   180.00000     3.88765     0.00000     0.00000     0.00000
     1.50000   176.33183   180.00000     3.88742     0.00000     0.00000     0.00000
     1.60000   176.05615   180.00000     3.88713     0.00000     0.00000     0.00000
     1.70000   175.82650   180.00000     3.88687     0.00000     0.00000     0.00000
     1.80000   175.59677   180.00000     3.88660     0.00000     0.00000     0.00000
     1.90000   175.32081   180.00000     3.88626     0.00000     0.00000     0.00000
     2.00000   175.09090   180.00000     3.88595     0.00000     0.00000     0.00000
     2.10000   174.86092   180.00000     3.88563     0.00000     0.00000     0.00000
     2.20000   174.58463   180.00000     3.88523     0.00000     0.00000     0.00000
     2.30000   174.35444   180.00000     3.88488     0.00000     0.00000     0.00000
     2.40000   174.12415   180.00000     3.88451     0.00000     0.00000     0.00000
     2.50000   173.84749   180.00000     3.88405     0.00000     0.00000     0.00000
     2.60000   173.61697   180.00000     3.88365     0.00000     0.00000     0.00000
     2.70000   173.38635   180.00000     3.88324     0.00000     0.00000     0.00000
     2.80000   173.10926   180.00000     3.88273     0.00000     0.00000     0.00000
     2.90000   172.87837   180.00000     3.88228     0.00000     0.00000     0.00000
     3.00000   172.64736   180.00000     3.88182     0.00000     0.00000     0.00000
     3.10000   172.36981   180.00000     3.88125     0.00000     0.00000     0.00000
     3.20000   172.13851   180.00000     3.88076     0.00000     0.00000     0.00000
     3.30000   171.86060   180.00000     3.88015     0.00000     0.00000     0.00000
     3.40000   171.62899   180.00000     3.87963     0.00000     0.00000     0.00000
     3.50000   171.39725   180.00000     3.87909     0.00000     0.00000     0.00000
     3.60000   171.11878   180.00000     3.87843     0.00000     0.00000     0.00000
     3.70000   170.88670   180.00000     3.87786     0.00000     0.00000     0.00000
     3.80000   170.65446   180.00000     3.87728     0.00000     0.00000     0.00000
     3.90000   170.37538   180.00000     3.87656     0.00000     0.00000     0.00000
     4.00000   170.14278   180.00000     3.87594     0.00000     0.00000     0.00000
     4.10000   169.86326   180.00000     3.87519     0.00000     0.00000     0.00000
     4.20000   169.63027   180.00000     3.87454     0.00000     0.00000     0.00000
     4.30000   169.39711   180.00000     3.87388     0.00000     0.00000     0.00000
     4.40000   169.11690   180.00000     3.87307     0.00000     0.00000     0.00000
     4.50000   168.88333   180.00000     3.87237     0.00000     0.00000     0.00000
     4.60000   168.60261   180.00000     3.87153     0.00000     0.00000     0.00000
     4.70000   168.36861   180.00000     3.87080     0.00000     0.00000     0.00000
     4.80000   168.13440   180.00000     3.87006     0.00000     0.00000     0.00000
     4.90000   167.85292   180.00000     3.86916     0.00000     0.00000     0.00000
     5.00000   167.61826   180.00000     3.86839     0.00000     0.00000     0.00000
     5.10000   167.33621   180.00000     3.86745     0.00000     0.00000     0.00000
     5.20000   167.10107   180.00000     3.86665     0.00000     0.00000     0.00000
     5.30000   166.86570   180.00000     3.86583     0.00000     0.00000     0.00000
     5.40000   166.58280   180.00000     3.86484     0.00000     0.00000     0.00000
     5.50000   166.34693   180.00000     3.86399     0.00000     0.00000     0.00000
     5.60000   166.06340   180.00000     3.86296     0.00000     0.00000     0.00000
     5.70000   165.82701   180.00000     3.86208     0.00000     0.00000     0.00000
     5.80000   165.54284   180.00000     3.86101     0.00000     0.00000     0.00000
     5.90000   165.30590   180.00000     3.86010     0.00000     0.00000     0.00000
     6.00000   165.06871   180.00000     3.85918     0.00000     0.00000     0.00000
     6.10000   164.78356   180.00000     3.85806     0.00000     0.00000     0.00000
     6.20000   164.54579   180.00000     3.85710     0.00000     0.00000     0.00000
     6.30000   164.25995   180.00000     3.85594     0.00000     0.00000     0.00000
     6.40000   164.02159   180.00000     3.85496     0.00000     0.00000     0.00000
     6.50000   163.73502   180.00000     3.85376     0.00000     0.00000     0.00000
     6.60000   163.49605   180.00000     3.85275     0.00000     0.00000     0.00000
     6.70000   163.20873   180.00000     3.85151     0.00000     0.00000     0.00000
     6.80000   162.96912   180.00000     3.85047     0.00000     0.00000     0.00000
     6.90000   162.68104   180.00000     3.84920     0.00000     0.00000     0.00000
     7.00000   162.44078   180.00000     3.84812     0.00000     0.00000     0.00000
     7.10000   162.20021   180.00000     3.84704     0.00000     0.00000     0.00000
     7.20000   161.91096   180.00000     3.84571     0.00000     0.00000     0.00000
     7.30000   161.66971   180.00000     3.84459     0.00000     0.00000     0.00000
     7.40000   161.37964   180.00000     3.84324     0.00000     0.00000     0.00000
     7.50000   161.13768   180.00000     3.84209     0.00000     0.00000     0.00000
     7.60000   160.84675   180.00000     3.84069     0.00000     0.00000     0.00000
     7.70000   160.60408   180.00000     3.83952     0.00000     0.00000     0.00000
     7.80000   160.31228   180.00000     3.83809     0.00000     0.00000     0.00000
     7.90000   160.06886   180.00000     3.83688     0.00000     0.00000     0.00000
     8.00000   159.77615   180.00000     3.83542     0.00000     0.00000     0.00000
     8.10000   159.48295   180.00000     3.83393     0.00000     0.00000     0.00000
     8.20000   159.23835   180.00000     3.83268     0.00000     0.00000     0.00000
     8.30000   158.94420   180.00000     3.83116     0.00000     0.00000     0.00000
     8.40000   158.69881   180.00000     3.82988     0.00000     0.00000     0.00000
     8.50000   158.40371   180.00000     3.82833     0.00000     0.00000     0.00000
     8.60000   158.15751   180.00000     3.82702     0.00000     0.00000     0.00000
     8.70000   157.86142   180.00000     3.82543     0.00000     0.00000     0.00000
     8.80000   157.61438   180.00000     3.82409     0.00000     0.00000     0.00000
     8.90000   157.31728   180.00000     3.82247     0.00000     0.00000     0.00000
     9.00000   157.01963   180.00000     3.82083     0.00000     0.00000     0.00000
     9.10000   156.77127   180.00000     3.81945     0.00000     0.00000     0.00000
     9.20000   156.47256   180.00000     3.81778     0.00000     0.00000     0.00000
     9.30000   156.22332   180.00000     3.81637     0.00000     0.00000     0.00000
     9.40000   155.92355   180.00000     3.81466     0.00000     0.00000     0.00000
     9.50000   155.62319   180.00000     3.81293     0.00000     0.00000     0.00000
     9.60000   155.37255   180.00000     3.81148     0.00000     0.00000     0.00000
     9.70000   155.07108   180.00000     3.80973     0.00000     0.00000     0.00000
     9.80000   154.76900   180.00000     3.80795     0.00000     0.00000     0.00000
     9.90000   154.51691   180.00000     3.80646     0.00000     0.00000     0.00000
    10.00000   154.21369   180.00000     3.80465     0.00000     0.00000     0.00000
    10.10000   153.90983   180.00000     3.80283     0.00000     0.00000     0.00000
    10.20000   153.65625   180.00000     3.80129     0.00000     0.00000     0.00000
    10.30000   153.35122   180.00000     3.79944     0.00000     0.00000     0.00000
    10.40000   153.04554   180.00000     3.79756     0.00000     0.00000     0.00000
    10.50000   152.79041   180.00000     3.79599     0.00000     0.00000     0.00000
    10.60000   152.48352   180.00000     3.79408     0.00000     0.00000     0.00000
    10.70000   152.17595   180.00000     3.79216     0.00000     0.00000     0.00000
    10.80000   151.86770   180.00000     3.79023     0.00000     0.00000     0.00000
    10.90000   151.61042   180.00000     3.78860     0.00000     0.00000     0.00000
    11.00000   151.30091   180.00000     3.78663     0.00000     0.00000     0.00000
    11.10000   150.99071   180.00000     3.78465     0.00000     0.00000     0.00000
    11.20000   150.67980   180.00000     3.78265     0.00000     0.00000     0.00000
    11.30000   150.36818   180.00000     3.78064     0.00000     0.00000     0.00000
    11.40000   150.10806   180.00000     3.77895     0.00000     0.00000     0.00000
    11.50000   149.79512   180.00000     3.77691     0.00000     0.00000     0.00000
    11.60000   149.48145   180.00000     3.77485     0.00000     0.00000     0.00000
    11.70000   149.16704   180.00000     3.77278     0.00000     0.00000     0.00000
    11.80000   148.85189   180.00000     3.77069     0.00000     0.00000     0.00000
    11.90000   148.53599   180.00000     3.76859     0.00000     0.00000     0.00000
    12.00000   148.21933   180.00000     3.76647     0.00000     0.00000     0.00000
    12.10000   147.95497   180.00000     3.76469     0.00000     0.00000     0.00000
    12.20000   147.63691   180.00000     3.76255     0.00000     0.00000     0.00000
    12.30000   147.31808   180.00000     3.76039     0.00000     0.00000     0.00000
    12.40000   146.99846   180.00000     3.75822     0.00000     0.00000     0.00000
    12.50000   146.67806   180.00000     3.75604     0.00000     0.00000     0.00000
    12.60000   146.35687   180.00000     3.75384     0.00000     0.00000     0.00000
    12.70000   146.03487   180.00000     3.75163     0.00000     0.00000     0.00000
    12.80000   145.71207   180.00000     3.74940     0.00000     0.00000     0.00000
    12.90000   145.38845   180.00000     3.74716     0.00000     0.00000     0.00000
    13.00000   145.06402   180.00000     3.74491     0.00000     0.00000     0.00000
    13.10000   144.73876   180.00000     3.74265     0.00000     0.00000     0.00000
    13.20000   144.41267   180.00000     3.74038     0.00000     0.00000     0.00000
    13.30000   144.03108   180.00000     3.73771     0.00000     0.00000     0.00000
    13.40000   143.70318   180.00000     3.73541     0.00000     0.00000     0.00000
    13.50000   143.37442   180.00000     3.73310     0.00000     0.00000     0.00000
    13.60000   143.04481   180.00000     3.73078     0.00000     0.00000     0.00000
    13.70000   142.71434   180.00000     3.72845     0.00000     0.00000     0.00000
    13.80000   142.38300   180.00000     3.72610     0.00000     0.00000     0.00000
    13.90000   141.99524   180.00000     3.72336     0.00000     0.00000     0.00000
    14.00000   141.66201   180.00000     3.72099     0.00000     0.00000     0.00000
    14.10000   141.32789   180.00000     3.71862     0.00000     0.00000     0.00000
    14.20000   140.99288   180.00000     3.71623     0.00000     0.00000     0.00000
    14.30000   140.60082   180.00000     3.71344     0.00000     0.00000     0.00000
    14.40000   140.26387   180.00000     3.71104     0.00000     0.00000     0.00000
    14.50000   139.86953   180.00000     3.70823     0.00000     0.00000     0.00000
    14.60000   139.53061   180.00000     3.70580     0.00000     0.00000     0.00000
    14.70000   139.19078   180.00000     3.70337     0.00000     0.00000     0.00000
    14.80000   138.79306   180.00000     3.70053     0.00000     0.00000     0.00000
    14.90000   138.45122   180.00000     3.69808     0.00000     0.00000     0.00000
    15.00000   138.05115   180.00000     3.69523     0.00000     0.00000     0.00000
    15.10000   137.70730   180.00000     3.69276     0.00000     0.00000     0.00000
    15.20000   137.30486   180.00000     3.68989     0.00000     0.00000     0.00000
    15.30000   136.90114   180.00000     3.68701     0.00000     0.00000     0.00000
    15.40000   136.55413   180.00000     3.68453     0.00000     0.00000     0.00000
    15.50000   136.14801   180.00000     3.68163     0.00000     0.00000     0.00000
    15.60000   135.74058   180.00000     3.67873     0.00000     0.00000     0.00000
    15.70000   135.39037   180.00000     3.67623     0.00000     0.00000     0.00000
    15.80000   134.98051   180.00000     3.67332     0.00000     0.00000     0.00000
    15.90000   134.56932   180.00000     3.67040     0.00000     0.00000     0.00000
    16.00000   134.15681   180.00000     3.66748     0.00000     0.00000     0.00000
    16.10000   133.74297   180.00000     3.66456     0.00000     0.00000     0.00000
    16.20000   133.32780   180.00000     3.66163     0.00000     0.00000     0.00000
    16.30000   132.91129   180.00000     3.65870     0.00000     0.00000     0.00000
    16.40000   132.49343   180.00000     3.65577     0.00000     0.00000     0.00000
    16.50000   132.07423   180.00000     3.65284     0.00000     0.00000     0.00000
    16.60000   131.65367   180.00000     3.64991     0.00000     0.00000     0.00000
    16.70000   131.23177   180.00000     3.64698     0.00000     0.00000     0.00000
    16.80000   130.80850   180.00000     3.64405     0.00000     0.00000     0.00000
    16.90000   130.32305   180.00000     3.64071     0.00000     0.00000     0.00000
    17.00000   129.89687   180.00000     3.63779     0.00000     0.00000     0.00000
    17.10000   129.40809   180.00000     3.63445     0.00000     0.00000     0.00000
    17.20000   128.97898   180.00000     3.63154     0.00000     0.00000     0.00000
    17.30000   128.48685   180.00000     3.62821     0.00000     0.00000     0.00000
    17.40000   128.05482   180.00000     3.62531     0.00000     0.00000     0.00000
    17.50000   127.55934   180.00000     3.62200     0.00000     0.00000     0.00000
    17.60000   127.06208   180.00000     3.61870     0.00000     0.00000     0.00000
    17.70000   126.56303   180.00000     3.61542     0.00000     0.00000     0.00000
    17.80000   126.06219   180.00000     3.61214     0.00000     0.00000     0.00000
    17.90000   125.55957   180.00000     3.60888     0.00000     0.00000     0.00000
    18.00000   125.05517   180.00000     3.60563     0.00000     0.00000     0.00000
    18.10000   124.54899   180.00000     3.60240     0.00000     0.00000     0.00000
    18.20000   124.04104   180.00000     3.59918     0.00000     0.00000     0.00000
    18.30000   123.46745   180.00000     3.59559     0.00000     0.00000     0.00000
    18.40000   122.95574   180.00000     3.59241     0.00000     0.00000     0.00000
    18.50000   122.37794   180.00000     3.58887     0.00000     0.00000     0.00000
    18.60000   121.79793   180.00000     3.58535     0.00000     0.00000     0.00000
    18.70000   121.21571   180.00000     3.58186     0.00000     0.00000     0.00000
    18.80000   120.63131   180.00000     3.57840     0.00000     0.00000     0.00000
    18.90000   120.04473   180.00000     3.57498     0.00000     0.00000     0.00000
    19.00000   119.45599   180.00000     3.57159     0.00000     0.00000     0.00000
    19.10000   118.79929   180.00000     3.56786     0.00000     0.00000     0.00000
    19.20000   118.20604   180.00000     3.56455     0.00000     0.00000     0.00000
    19.30000   117.54438   180.00000     3.56092     0.00000     0.00000     0.00000
    19.40000   116.88015   180.00000     3.55734     0.00000     0.00000     0.00000
    19.50000   116.14655   180.00000     3.55347     0.00000     0.00000     0.00000
    19.60000   115.47702   180.00000     3.55001     0.00000     0.00000     0.00000
    19.70000   114.73767   180.00000     3.54628     0.00000     0.00000     0.00000
    19.80000   113.99537   180.00000     3.54262     0.00000     0.00000     0.00000
    19.90000   113.18229   180.00000     3.53872     0.00000     0.00000     0.00000
    20.00000   112.43402   180.00000     3.53522     0.00000     0.00000     0.00000
    20.10000   111.54611   180.00000     3.53121     0.00000     0.00000     0.00000
    20.20000   110.72317   180.00000     3.52761     0.00000     0.00000     0.00000
    20.30000   109.82811   180.00000     3.52384     0.00000     0.00000     0.00000
    20.40000   108.86022   180.00000     3.51993     0.00000     0.00000     0.00000
    20.50000   107.81880   180.00000     3.51592     0.00000     0.00000     0.00000
    20.60000   106.77301   180.00000     3.51211     0.00000     0.00000     0.00000
    20.70000   105.65291   180.00000     3.50825     0.00000     0.00000     0.00000
    20.80000   104.38746   180.00000     3.50420     0.00000     0.00000     0.00000
    20.90000   103.04600   180.00000     3.50026     0.00000     0.00000     0.00000
    21.00000   101.55707   180.00000     3.49631     0.00000     0.00000     0.00000
    21.10000    99.84823   180.00000     3.49236     0.00000     0.00000     0.00000
    21.20000    97.70293   180.00000     3.48826     0.00000     0.00000     0.00000
    21.30000    94.68615   180.00000     3.48418     0.00000     0.00000     0.00000
    21.40000    90.00000   180.00000     3.48177     0.00000     0.00000     0.00000
    21.50000    90.00000   180.00000     3.48175     0.00000     0.00000     0.00000
    21.60000    90.00000   180.00000     3.48174     0.00000     0.00000     0.00000
    21.70000    90.00000   180.00000     3.48173     0.00000     0.00000     0.00000
    21.80000    90.00000   180.00000     3.48172     0.00000     0.00000     0.00000
    21.90000    90.00000   180.00000     3.48171     0.00000     0.00000     0.00000
    22.00000    90.00000   180.00000     3.48169     0.00000     0.00000     0.00000
    22.10000    90.00000   180.00000     3.48168     0.00000     0.00000     0.00000
    22.20000    90.00000   180.00000     3.48167     0.00000     0.00000     0.00000
    22.30000    90.00000   180.00000     3.48166     0.00000     0.00000     0.00000
    22.40000    90.00000   180.00000     3.48164     0.00000     0.00000     0.00000
    22.50000    90.00000   180.00000     3.48163     0.00000     0.00000     0.00000
    22.60000    90.00000   180.00000     3.48162     0.00000     0.00000     0.00000
    22.70000    90.00000   180.00000     3.48161     0.00000     0.00000     0.00000
    22.80000    90.00000   180.00000     3.48159     0.00000     0.00000     0.00000
    22.90000    90.00000   180.00000     3.48158     0.00000     0.00000     0.00000
    23.00000    90.00000   180.00000     3.48157     0.00000     0.00000     0.00000
    23.10000    90.00000   180.00000     3.48156     0.00000     0.00000     0.00000
    23.20000    90.00000   180.00000     3.48154     0.00000     0.00000     0.00000
    23.30000    90.00000   180.00000     3.48153     0.00000     0.00000     0.00000
