 # applied field (T), magnetization (2 f.u.), magnetization (T)
 # T=0 1st order approx.
 # K1(0) (K, MJ/m^3)   141.673325212347        11.2216744363760     
 # K2(0) (K, MJ/m^3)  -8.92202743929787      -0.706696811740316     
 # from A20
 # K1(0) from A20 (K, MJ/m^3)   131.476722424578        5.20701046862211     
  0.000000000000000E+000 -7.176665960226524E-016 -2.399145139032021E-017
  0.100000000000000       0.248293097626983       8.300388809070013E-003
  0.200000000000000       0.496574153035672       1.660037504918052E-002
  0.300000000000000       0.744831124546926       2.489955616939579E-002
  0.400000000000000       0.993051971559877       3.319752965482658E-002
  0.500000000000000        1.27660745089944       4.267673286246654E-002
  0.600000000000000        1.52471036554014       5.097076389217795E-002
  0.700000000000000        1.77273932929217       5.926232275840731E-002
  0.800000000000000        2.02068231176278       6.755100728752098E-002
  0.900000000000000        2.26852728640932       7.583641543459331E-002
   1.00000000000000        2.51626223107808       8.411814530141921E-002
   1.10000000000000        2.76387512854292       9.239579515452249E-002
   1.20000000000000        3.01135396704398       0.100668963443163     
   1.30000000000000        3.29394174442475       0.110115816567027     
   1.40000000000000        3.54109292848011       0.118378031432796     
   1.50000000000000        3.78807234636180       0.126634504189584     
   1.60000000000000        4.03486801468712       0.134884834235295     
   1.70000000000000        4.28146795830731       0.143128621243089     
   1.80000000000000        4.52786021084529       0.151365465179365     
   1.90000000000000        4.77403281523320       0.159594966321723     
   2.00000000000000        5.05502332116405       0.168988422979094     
   2.10000000000000        5.30068508506714       0.177200846825772     
   2.20000000000000        5.54608969047102       0.185404673915033     
   2.30000000000000        5.79122522459098       0.193599506004854     
   2.40000000000000        6.03607978671247       0.201784945256719     
   2.50000000000000        6.31548923303871       0.211125547406356     
   2.60000000000000        6.55970176132760       0.219289523595051     
   2.70000000000000        6.80359600230745       0.227442859502387     
   2.80000000000000        7.04716011097075       0.235585159152122     
   2.90000000000000        7.29038225713462       0.243716027063600     
   3.00000000000000        7.56785184889682       0.252991780261460     
   3.10000000000000        7.81030152972093       0.261096824810457     
   3.20000000000000        8.05237217228056       0.269189198185752     
   3.30000000000000        8.29405201349359       0.277268507149855     
   3.40000000000000        8.56969958577337       0.286483350599252     
   3.50000000000000        8.81050255280796       0.294533345834188     
   3.60000000000000        9.05087786797254       0.302569044752271     
   3.70000000000000        9.32498978109246       0.311732551421762     
   3.80000000000000        9.56440946358960       0.319736303730076     
   3.90000000000000        9.80336483372029       0.327724534168442     
   4.00000000000000        10.0418442685893       0.335696854185785     
   4.10000000000000        10.3137308458521       0.344785968320722     
   4.20000000000000        10.5511514832534       0.352722892949568     
   4.30000000000000        10.8217978826286       0.361770548184687     
   4.40000000000000        11.0581066799874       0.369670304222323     
   4.50000000000000        11.2938784799853       0.377552108545120     
   4.60000000000000        11.5625965664219       0.386535300662703     
   4.70000000000000        11.7971791479667       0.394377349649431     
   4.80000000000000        12.0645083608234       0.403314111999814     
   4.90000000000000        12.2978492693048       0.411114652103299     
   5.00000000000000        12.5305927953301       0.418895221830234     
   5.10000000000000        12.7957768543072       0.427760272113608     
   5.20000000000000        13.0272022408466       0.435496776700022     
   5.30000000000000        13.2908504825468       0.444310484917666     
   5.40000000000000        13.5209059304673       0.452001192728860     
   5.50000000000000        13.7829593265441       0.460761585574905     
   5.60000000000000        14.0441381872633       0.469492742878102     
   5.70000000000000        14.2719931753982       0.477109889756860     
   5.80000000000000        14.5314873312040       0.485784727710290     
   5.90000000000000        14.7578424583648       0.493351734535360     
   6.00000000000000        15.0155937455767       0.501968308738769     
   6.10000000000000        15.2723919220048       0.510553020638475     
   6.20000000000000        15.4963488867902       0.518039857372900     
   6.30000000000000        15.7513157227172       0.526563347924345     
   6.40000000000000        16.0052825026685       0.535053406803669     
   6.50000000000000        16.2267231876261       0.542456124804540     
   6.60000000000000        16.4787710545632       0.550882034803929     
   6.70000000000000        16.7297724118500       0.559272960194110     
   6.80000000000000        16.9797112219694       0.567628364844078     
   6.90000000000000        17.2285715107334       0.575947714739910     
   7.00000000000000        17.4763373682811       0.584230478018123     
   7.10000000000000        17.6922741880096       0.591449202900412     
   7.20000000000000        17.9379451680454       0.599661934840571     
   7.30000000000000        18.1824763415019       0.607836563273765     
   7.40000000000000        18.4258520572138       0.615972564984651     
   7.50000000000000        18.6680567331852       0.624069419070213     
   7.60000000000000        18.9090748575783       0.632126606972797     
   7.70000000000000        19.1488909896996       0.640143612513099     
   7.80000000000000        19.4171775370825       0.649112378366052     
   7.90000000000000        19.6543886758018       0.657042299495676     
   8.00000000000000        19.8903500410688       0.664930440947669     
   8.10000000000000        20.1250464960162       0.672776296699569     
   8.20000000000000        20.3584629799493       0.680579363275352     
   8.30000000000000        20.6194581199531       0.689304378831622     
   8.40000000000000        20.8501051980893       0.697014864723106     
   8.50000000000000        21.0794257436352       0.704681004894265     
   8.60000000000000        21.3357581890259       0.713250147498136     
   8.70000000000000        21.5622112146251       0.720820427048504     
   8.80000000000000        21.8152810074963       0.729280499828369     
   8.90000000000000        22.0388007603792       0.736752720655957     
   9.00000000000000        22.2885343835070       0.745101265945657     
   9.10000000000000        22.5090559138636       0.752473256791252     
   9.20000000000000        22.7553807639364       0.760707847476540     
   9.30000000000000        22.9998719992144       0.768881140784380     
   9.40000000000000        23.2425096751050       0.776992469971011     
   9.50000000000000        23.4566575943987       0.784151392268005     
   9.60000000000000        23.6957399927227       0.792143869233575     
   9.70000000000000        23.9329120219442       0.800072482940479     
   9.80000000000000        24.1681543029391       0.807936585548451     
   9.90000000000000        24.4014476061014       0.815735534215598     
   10.0000000000000        24.6327728530216       0.823468691154482     
   10.1000000000000        24.8874288424569       0.831981790169611     
   10.2000000000000        25.1145375463096       0.839573988913426     
   10.3000000000000        25.3396198245312       0.847098444651930     
   10.4000000000000        25.5872719545799       0.855377406042500     
   10.5000000000000        25.8080160697901       0.862756837855429     
   10.6000000000000        26.0508034315304       0.870873171010208     
   10.7000000000000        26.2671287176787       0.878104882247552     
   10.8000000000000        26.5049625361532       0.886055619437395     
   10.9000000000000        26.7401542622877       0.893918032006453     
   11.0000000000000        26.9726800400361       0.901691322451855     
   11.1000000000000        27.2025162722657       0.909374701926153     
   11.2000000000000        27.4296396234504       0.916967390327359     
   11.3000000000000        27.6540270223493       0.924468616388485     
   11.4000000000000        27.8976318008919       0.932612275624186     
   11.5000000000000        28.1162000003398       0.939918967006486     
   11.6000000000000        28.3533498192992       0.947846838228749     
   11.7000000000000        28.5660007636324       0.954955716950919     
   11.8000000000000        28.7965891605397       0.962664241140609     
   11.9000000000000        29.0236991925207       0.970256484283488     
   12.0000000000000        29.2473028413051       0.977731509734358     
   12.1000000000000        29.4871730461526       0.985750322915127     
   12.2000000000000        29.7033566771614       0.992977298649368     
   12.3000000000000        29.9350685099086        1.00072337907547     
   12.4000000000000        30.1624739058173        1.00832549617563     
   12.5000000000000        30.3855393810124        1.01578253059058     
   12.6000000000000        30.6042320731941        1.02309338374018     
   12.7000000000000        30.8361512541480        1.03084639577554     
   12.8000000000000        31.0628609344623        1.03842525524193     
   12.9000000000000        31.2843218426334        1.04582864930080     
   13.0000000000000        31.5004955958786        1.05305529482337     
   13.1000000000000        31.7273190568060        1.06063795795299     
   13.2000000000000        31.9479219495992        1.06801266872864     
   13.3000000000000        32.1622598487487        1.07517794201438     
   13.4000000000000        32.3848853185017        1.08262026713503     
   13.5000000000000        32.6002181115405        1.08981879952536     
   13.6000000000000        32.8217928424433        1.09722599865548     
   13.7000000000000        33.0479794753854        1.10478737275238     
   13.8000000000000        33.2646024484045        1.11202903560253     
   13.9000000000000        33.4834556386521        1.11934525417052     
   14.0000000000000        33.6914417056935        1.12629818697377     
   14.1000000000000        33.9096767827653        1.13359374214138     
   14.2000000000000        34.1241804203523        1.14076455603008     
   14.3000000000000        34.3417785630597        1.14803881860872     
   14.4000000000000        34.5576168756089        1.15525425041562     
   14.5000000000000        34.7736101224445        1.16247486164487     
   14.6000000000000        34.9869385761323        1.16960638936984     
   14.7000000000000        35.2029836003148        1.17682873150548     
   14.8000000000000        35.4157078168626        1.18394005970319     
   14.9000000000000        35.5134879670738        1.18720883065300     
   15.0000000000000        35.5137430283156        1.18721735729952     
   15.1000000000000        35.5139980676354        1.18722588321319     
   15.2000000000000        35.5142530850413        1.18723440839429     
   15.3000000000000        35.5145080805413        1.18724293284308     
   15.4000000000000        35.5147630541434        1.18725145655982     
   15.5000000000000        35.5150180058557        1.18725997954479     
   15.6000000000000        35.5152729356862        1.18726850179826     
   15.7000000000000        35.5155278436429        1.18727702332049     
   15.8000000000000        35.5157827297339        1.18728554411175     
   15.9000000000000        35.5160375939672        1.18729406417232     
   16.0000000000000        35.5162924363508        1.18730258350245     
   16.1000000000000        35.5165472568927        1.18731110210243     
   16.2000000000000        35.5168020556011        1.18731961997251     
   16.3000000000000        35.5170568324838        1.18732813711296     
   16.4000000000000        35.5173115875490        1.18733665352406     
   16.5000000000000        35.5175663208048        1.18734516920607     
   16.6000000000000        35.5178210322590        1.18735368415926     
   16.7000000000000        35.5180757219198        1.18736219838391     
   16.8000000000000        35.5183303897953        1.18737071188027     
   16.9000000000000        35.5185850358933        1.18737922464862     
   17.0000000000000        35.5188396602221        1.18738773668922     
   17.1000000000000        35.5190942627895        1.18739624800235     
   17.2000000000000        35.5193488436037        1.18740475858827     
   17.3000000000000        35.5196034026727        1.18741326844726     
   17.4000000000000        35.5198579400046        1.18742177757957     
   17.5000000000000        35.5201124556073        1.18743028598549     
   17.6000000000000        35.5203669494889        1.18743879366527     
   17.7000000000000        35.5206214216575        1.18744730061919     
   17.8000000000000        35.5208758721211        1.18745580684752     
   17.9000000000000        35.5211303008877        1.18746431235052     
   18.0000000000000        35.5213847079654        1.18747281712846     
   18.1000000000000        35.5216390933622        1.18748132118162     
   18.2000000000000        35.5218934570862        1.18748982451026     
   18.3000000000000        35.5221477991454        1.18749832711465     
   18.4000000000000        35.5224021195478        1.18750682899506     
   18.5000000000000        35.5226564183016        1.18751533015176     
   18.6000000000000        35.5229106954147        1.18752383058501     
   18.7000000000000        35.5231649508952        1.18753233029509     
   18.8000000000000        35.5234191847511        1.18754082928227     
   18.9000000000000        35.5236733969905        1.18754932754681     
   19.0000000000000        35.5239275876214        1.18755782508898     
   19.1000000000000        35.5241817566519        1.18756632190906     
   19.2000000000000        35.5244359040901        1.18757481800730     
   19.3000000000000        35.5246900299439        1.18758331338399     
   19.4000000000000        35.5249441342214        1.18759180803939     
   19.5000000000000        35.5251982169307        1.18760030197376     
   19.6000000000000        35.5254522780798        1.18760879518738     
   19.7000000000000        35.5257063176768        1.18761728768052     
   19.8000000000000        35.5259603357297        1.18762577945345     
   19.9000000000000        35.5262143322466        1.18763427050642     
   20.0000000000000        35.5264683072355        1.18764276083973     
   20.1000000000000        35.5267222607045        1.18765125045362     
   20.2000000000000        35.5269761926616        1.18765973934838     
   20.3000000000000        35.5272301031149        1.18766822752427     
   20.4000000000000        35.5274839920724        1.18767671498156     
   20.5000000000000        35.5277378595422        1.18768520172053     
   20.6000000000000        35.5279917055324        1.18769368774143     
   20.7000000000000        35.5282455300510        1.18770217304454     
   20.8000000000000        35.5284993331060        1.18771065763012     
   20.9000000000000        35.5287531147055        1.18771914149846     
   21.0000000000000        35.5290068748576        1.18772762464981     
   21.1000000000000        35.5292606135703        1.18773610708444     
   21.2000000000000        35.5295143308516        1.18774458880264     
   21.3000000000000        35.5297680267098        1.18775306980465     
   21.4000000000000        35.5300217011527        1.18776155009076     
   21.5000000000000        35.5302753541884        1.18777002966124     
   21.6000000000000        35.5305289858251        1.18777850851634     
   21.7000000000000        35.5307825960708        1.18778698665635     
   21.8000000000000        35.5310361849334        1.18779546408153     
   21.9000000000000        35.5312897524212        1.18780394079215     
   22.0000000000000        35.5315432985421        1.18781241678848     
   22.1000000000000        35.5317968233042        1.18782089207079     
   22.2000000000000        35.5320503267156        1.18782936663936     
   22.3000000000000        35.5323038087844        1.18783784049444     
   22.4000000000000        35.5325572695185        1.18784631363630     
   22.5000000000000        35.5328107089261        1.18785478606523     
   22.6000000000000        35.5330641270152        1.18786325778148     
   22.7000000000000        35.5333175237939        1.18787172878534     
   22.8000000000000        35.5335708992703        1.18788019907705     
   22.9000000000000        35.5338242534524        1.18788866865691     
   23.0000000000000        35.5340775863482        1.18789713752517     
   23.1000000000000        35.5343308979659        1.18790560568210     
   23.2000000000000        35.5345841883136        1.18791407312799     
   23.3000000000000        35.5348374573991        1.18792253986308     
   23.4000000000000        35.5350907052308        1.18793100588766     
   23.5000000000000        35.5353439318166        1.18793947120200     
   23.6000000000000        35.5355971371645        1.18794793580636     
   23.7000000000000        35.5358503212827        1.18795639970101     
   23.8000000000000        35.5361034841792        1.18796486288623     
   23.9000000000000        35.5363566258622        1.18797332536228     
   24.0000000000000        35.5366097463395        1.18798178712943     
   24.1000000000000        35.5368628456194        1.18799024818795     
   24.2000000000000        35.5371159237099        1.18799870853812     
   24.3000000000000        35.5373689806191        1.18800716818020     
   24.4000000000000        35.5376220163550        1.18801562711447     
   24.5000000000000        35.5378750309258        1.18802408534118     
   24.6000000000000        35.5381280243394        1.18803254286062     
   24.7000000000000        35.5383809966039        1.18804099967304     
   24.8000000000000        35.5386339477276        1.18804945577873     
   24.9000000000000        35.5388868777183        1.18805791117796     
   25.0000000000000        35.5391397865842        1.18806636587098     
   25.1000000000000        35.5393926743333        1.18807481985807     
   25.2000000000000        35.5396455409738        1.18808327313951     
   25.3000000000000        35.5398983865137        1.18809172571556     
   25.4000000000000        35.5401512109611        1.18810017758649     
   25.5000000000000        35.5404040143240        1.18810862875257     
   25.6000000000000        35.5406567966106        1.18811707921407     
   25.7000000000000        35.5409095578289        1.18812552897126     
   25.8000000000000        35.5411622979870        1.18813397802442     
   25.9000000000000        35.5414150170929        1.18814242637380     
   26.0000000000000        35.5416677151548        1.18815087401969     
   26.1000000000000        35.5419203921807        1.18815932096235     
   26.2000000000000        35.5421730481788        1.18816776720205     
   26.3000000000000        35.5424256831570        1.18817621273906     
   26.4000000000000        35.5426782971235        1.18818465757366     
   26.5000000000000        35.5429308900863        1.18819310170610     
   26.6000000000000        35.5431834620536        1.18820154513667     
   26.7000000000000        35.5434360130333        1.18820998786563     
   26.8000000000000        35.5436885430337        1.18821842989326     
