 # applied field (T), magnetization (2 f.u.), magnetization (T)
  0.000000000000000E+000  2.726733310506269E-015  9.382536912448441E-017
  0.100000000000000       0.799620982537457       2.751451106611159E-002
  0.200000000000000        1.55464102282830       5.349432863892669E-002
  0.300000000000000        2.35358679029575       8.098560593188674E-002
  0.400000000000000        3.15180654992033       0.108451901700771     
  0.500000000000000        3.94904320265157       0.135884369310956     
  0.600000000000000        4.74503986656807       0.163274169599110     
  0.700000000000000        5.53953995633553       0.190612473607296     
  0.800000000000000        6.33228726815233       0.217890465505904     
  0.900000000000000        7.12302606784138       0.245099345624841     
   1.00000000000000        7.91150117994556       0.272230333519256     
   1.10000000000000        8.69745807612021       0.299274671011076     
   1.20000000000000        9.52404208186767       0.327716964635036     
   1.30000000000000        10.3472402282543       0.356042752730892     
   1.40000000000000        11.1237436234471       0.382761800537903     
   1.50000000000000        11.9394987626600       0.410831478917132     
   1.60000000000000        12.7935621038244       0.440219321113392     
   1.70000000000000        13.6002660437812       0.467977552785329     
   1.80000000000000        14.4441554518968       0.497015315632033     
   1.90000000000000        15.2823290474688       0.525856400563930     
   2.00000000000000        16.1144516338408       0.554489273651423     
   2.10000000000000        16.9812823797472       0.584316435108596     
   2.20000000000000        17.8406923814886       0.613888252906827     
   2.30000000000000        18.6923018839554       0.643191659885058     
   2.40000000000000        19.5756675761377       0.673587779601484     
   2.50000000000000        20.4891064349340       0.705018700171891     
   2.60000000000000        21.3527835124862       0.734737345663719     
   2.70000000000000        22.2832143069953       0.766752949244473     
   2.80000000000000        23.2008850754721       0.798329487461590     
   2.90000000000000        24.1426316347565       0.830734460183386     
   3.00000000000000        25.1060910343136       0.863886559602715     
   3.10000000000000        26.0526448902332       0.896456948714723     
   3.20000000000000        27.0523297921203       0.930855547421216     
   3.30000000000000        28.0308569381169       0.964526119573508     
   3.40000000000000        29.0548848470885       0.999762347547411     
   3.50000000000000        30.1183349592018        1.03635507149663     
   3.60000000000000        31.1826903032290        1.07297894397004     
   3.70000000000000        32.3049673008343        1.11159586816813     
   3.80000000000000        33.4440402687193        1.15079073231555     
   3.90000000000000        34.6186565664405        1.19120862257591     
   4.00000000000000        35.8405442083145        1.23325309336657     
   4.10000000000000        37.1125795801360        1.27702311951496     
   4.20000000000000        38.4487735531957        1.32300080727092     
   4.30000000000000        39.8585050259540        1.37150887928820     
   4.40000000000000        41.3547846940088        1.42299502633007     
   4.50000000000000        42.9642958443312        1.47837740538677     
   4.60000000000000        44.4441171766313        1.52929723029460     
   4.70000000000000        44.4443630491325        1.52930569062994     
   4.80000000000000        44.4446088989439        1.52931415018453     
   4.90000000000000        44.4448547260737        1.52932260895867     
   5.00000000000000        44.4451005305305        1.52933106695263     
   5.10000000000000        44.4453463123226        1.52933952416672     
   5.20000000000000        44.4455920714586        1.52934798060123     
   5.30000000000000        44.4458378079468        1.52935643625643     
   5.40000000000000        44.4460835217956        1.52936489113263     
   5.50000000000000        44.4463292130135        1.52937334523011     
   5.60000000000000        44.4465748816090        1.52938179854917     
   5.70000000000000        44.4468205275904        1.52939025109008     
   5.80000000000000        44.4470661509662        1.52939870285316     
   5.90000000000000        44.4473117517448        1.52940715383867     
   6.00000000000000        44.4475573299346        1.52941560404692     
   6.10000000000000        44.4478028855442        1.52942405347819     
   6.20000000000000        44.4480484185818        1.52943250213278     
   6.30000000000000        44.4482939290560        1.52944095001097     
   6.40000000000000        44.4485394169752        1.52944939711305     
   6.50000000000000        44.4487848823478        1.52945784343932     
   6.60000000000000        44.4490303251823        1.52946628899007     
   6.70000000000000        44.4492757454870        1.52947473376558     
   6.80000000000000        44.4495211432705        1.52948317776614     
   6.90000000000000        44.4497665185411        1.52949162099206     
   7.00000000000000        44.4500118713073        1.52950006344360     
   7.10000000000000        44.4502572015775        1.52950850512107     
   7.20000000000000        44.4505025093602        1.52951694602476     
   7.30000000000000        44.4507477946638        1.52952538615496     
   7.40000000000000        44.4509930574967        1.52953382551195     
   7.50000000000000        44.4512382978673        1.52954226409603     
   7.60000000000000        44.4514835157842        1.52955070190749     
   7.70000000000000        44.4517287112557        1.52955913894661     
   7.80000000000000        44.4519738842903        1.52956757521369     
   7.90000000000000        44.4522190348964        1.52957601070902     
   8.00000000000000        44.4524641630824        1.52958444543289     
   8.10000000000000        44.4527092688568        1.52959287938559     
   8.20000000000000        44.4529543522281        1.52960131256741     
   8.30000000000000        44.4531994132046        1.52960974497863     
   8.40000000000000        44.4534444517948        1.52961817661956     
   8.50000000000000        44.4536894680071        1.52962660749047     
   8.60000000000000        44.4539344618501        1.52963503759167     
   8.70000000000000        44.4541794333320        1.52964346692344     
   8.80000000000000        44.4544243824614        1.52965189548607     
   8.90000000000000        44.4546693092467        1.52966032327985     
   9.00000000000000        44.4549142136963        1.52966875030508     
   9.10000000000000        44.4551590958187        1.52967717656203     
   9.20000000000000        44.4554039556223        1.52968560205101     
   9.30000000000000        44.4556487931156        1.52969402677231     
   9.40000000000000        44.4558936083070        1.52970245072620     
   9.50000000000000        44.4561384012049        1.52971087391299     
   9.60000000000000        44.4563831718178        1.52971929633297     
   9.70000000000000        44.4566279201541        1.52972771798642     
   9.80000000000000        44.4568726462223        1.52973613887364     
   9.90000000000000        44.4571173500307        1.52974455899491     
   10.0000000000000        44.4573620315879        1.52975297835053     
   10.1000000000000        44.4576066909023        1.52976139694079     
   10.2000000000000        44.4578513279824        1.52976981476598     
   10.3000000000000        44.4580959428365        1.52977823182638     
   10.4000000000000        44.4583405354731        1.52978664812229     
   10.5000000000000        44.4585851059006        1.52979506365400     
   10.6000000000000        44.4588296541276        1.52980347842181     
   10.7000000000000        44.4590741801625        1.52981189242599     
   10.8000000000000        44.4593186840136        1.52982030566684     
   10.9000000000000        44.4595631656894        1.52982871814466     
   11.0000000000000        44.4598076251985        1.52983712985972     
   11.1000000000000        44.4600520625491        1.52984554081233     
   11.2000000000000        44.4602964777498        1.52985395100278     
   11.3000000000000        44.4605408708091        1.52986236043134     
   11.4000000000000        44.4607852417353        1.52987076909832     
   11.5000000000000        44.4610295905369        1.52987917700401     
   11.6000000000000        44.4612739172223        1.52988758414869     
   11.7000000000000        44.4615182218001        1.52989599053266     
   11.8000000000000        44.4617625042786        1.52990439615620     
   11.9000000000000        44.4620067646662        1.52991280101961     
   12.0000000000000        44.4622510029716        1.52992120512319     
   12.1000000000000        44.4624952192030        1.52992960846721     
   12.2000000000000        44.4627394133689        1.52993801105196     
   12.3000000000000        44.4629835854778        1.52994641287775     
   12.4000000000000        44.4632277355382        1.52995481394486     
   12.5000000000000        44.4634718635584        1.52996321425359     
   12.6000000000000        44.4637159695469        1.52997161380421     
   12.7000000000000        44.4639600535122        1.52998001259703     
   12.8000000000000        44.4642041154628        1.52998841063233     
   12.9000000000000        44.4644481554070        1.52999680791040     
   13.0000000000000        44.4646921733533        1.53000520443155     
   13.1000000000000        44.4649361693102        1.53001360019604     
   13.2000000000000        44.4651801432861        1.53002199520418     
   13.3000000000000        44.4654240952895        1.53003038945627     
   13.4000000000000        44.4656680253288        1.53003878295257     
   13.5000000000000        44.4659119334124        1.53004717569340     
   13.6000000000000        44.4661558195489        1.53005556767904     
   13.7000000000000        44.4663996837467        1.53006395890978     
   13.8000000000000        44.4666435260141        1.53007234938591     
   13.9000000000000        44.4668873463598        1.53008073910772     
   14.0000000000000        44.4671311447921        1.53008912807550     
   14.1000000000000        44.4673749213194        1.53009751628955     
   14.2000000000000        44.4676186759503        1.53010590375016     
   14.3000000000000        44.4678624086931        1.53011429045760     
   14.4000000000000        44.4681061195564        1.53012267641219     
   14.5000000000000        44.4683498085486        1.53013106161420     
   14.6000000000000        44.4685934756781        1.53013944606393     
   14.7000000000000        44.4688371209534        1.53014782976167     
   14.8000000000000        44.4690807443829        1.53015621270771     
   14.9000000000000        44.4693243459752        1.53016459490234     
   15.0000000000000        44.4695679257386        1.53017297634585     
   15.1000000000000        44.4698114836816        1.53018135703853     
   15.2000000000000        44.4700550198126        1.53018973698068     
   15.3000000000000        44.4702985341402        1.53019811617258     
   15.4000000000000        44.4705420266727        1.53020649461453     
   15.5000000000000        44.4707854974187        1.53021487230681     
   15.6000000000000        44.4710289463866        1.53022324924972     
   15.7000000000000        44.4712723735848        1.53023162544355     
   15.8000000000000        44.4715157790217        1.53024000088859     
   15.9000000000000        44.4717591627060        1.53024837558512     
   16.0000000000000        44.4720025246459        1.53025674953345     
   16.1000000000000        44.4722458648500        1.53026512273386     
   16.2000000000000        44.4724891833267        1.53027349518664     
   16.3000000000000        44.4727324800845        1.53028186689209     
   16.4000000000000        44.4729757551318        1.53029023785049     
   16.5000000000000        44.4732190084771        1.53029860806214     
   16.6000000000000        44.4734622401288        1.53030697752732     
   16.7000000000000        44.4737054500955        1.53031534624633     
   16.8000000000000        44.4739486383855        1.53032371421946     
   16.9000000000000        44.4741918050073        1.53033208144700     
   17.0000000000000        44.4744349499694        1.53034044792924     
   17.1000000000000        44.4746780732803        1.53034881366648     
   17.2000000000000        44.4749211749483        1.53035717865900     
   17.3000000000000        44.4751642549820        1.53036554290709     
   17.4000000000000        44.4754073133898        1.53037390641104     
   17.5000000000000        44.4756503501802        1.53038226917116     
   17.6000000000000        44.4758933653616        1.53039063118772     
   17.7000000000000        44.4761363589425        1.53039899246102     
   17.8000000000000        44.4763793309314        1.53040735299135     
   17.9000000000000        44.4766222813367        1.53041571277900     
   18.0000000000000        44.4768652101668        1.53042407182426     
   18.1000000000000        44.4771081174303        1.53043243012742     
   18.2000000000000        44.4773510031356        1.53044078768878     
   18.3000000000000        44.4775938672911        1.53044914450863     
   18.4000000000000        44.4778367099054        1.53045750058725     
   18.5000000000000        44.4780795309868        1.53046585592494     
   18.6000000000000        44.4783223305439        1.53047421052199     
   18.7000000000000        44.4785651085851        1.53048256437868     
   18.8000000000000        44.4788078651189        1.53049091749532     
   18.9000000000000        44.4790506001537        1.53049926987220     
   19.0000000000000        44.4792933136980        1.53050762150959     
   19.1000000000000        44.4795360057602        1.53051597240780     
   19.2000000000000        44.4797786763489        1.53052432256712     
   19.3000000000000        44.4800213254724        1.53053267198783     
   19.4000000000000        44.4802639531393        1.53054102067024     
   19.5000000000000        44.4805065593580        1.53054936861462     
   19.6000000000000        44.4807491441370        1.53055771582127     
   19.7000000000000        44.4809917074848        1.53056606229049     
   19.8000000000000        44.4812342494097        1.53057440802256     
   19.9000000000000        44.4814767699203        1.53058275301777     
   20.0000000000000        44.4817192690250        1.53059109727642     
   20.1000000000000        44.4819617467324        1.53059944079880     
   20.2000000000000        44.4822042030508        1.53060778358520     
   20.3000000000000        44.4824466379887        1.53061612563591     
   20.4000000000000        44.4826890515547        1.53062446695122     
   20.5000000000000        44.4829314437571        1.53063280753142     
   20.6000000000000        44.4831738146044        1.53064114737680     
   20.7000000000000        44.4834161641052        1.53064948648766     
   20.8000000000000        44.4836584922678        1.53065782486429     
   20.9000000000000        44.4839007991007        1.53066616250698     
   21.0000000000000        44.4841430846125        1.53067449941601     
   21.1000000000000        44.4843853488115        1.53068283559169     
   21.2000000000000        44.4846275917062        1.53069117103429     
   21.3000000000000        44.4848698133051        1.53069950574412     
   21.4000000000000        44.4851120136167        1.53070783972147     
   21.5000000000000        44.4853541926495        1.53071617296662     
   21.6000000000000        44.4855963504119        1.53072450547987     
   21.7000000000000        44.4858384869123        1.53073283726151     
   21.8000000000000        44.4860806021593        1.53074116831183     
   21.9000000000000        44.4863226961613        1.53074949863113     
   22.0000000000000        44.4865647689268        1.53075782821968     
   22.1000000000000        44.4868068204642        1.53076615707779     
   22.2000000000000        44.4870488507821        1.53077448520575     
   22.3000000000000        44.4872908598889        1.53078281260384     
   22.4000000000000        44.4875328477930        1.53079113927237     
   22.5000000000000        44.4877748145030        1.53079946521161     
   22.6000000000000        44.4880167600272        1.53080779042187     
   22.7000000000000        44.4882586843743        1.53081611490343     
   22.8000000000000        44.4885005875526        1.53082443865658     
   22.9000000000000        44.4887424695706        1.53083276168163     
   23.0000000000000        44.4889843304368        1.53084108397884     
   23.1000000000000        44.4892261701597        1.53084940554853     
   23.2000000000000        44.4894679887478        1.53085772639099     
   23.3000000000000        44.4897097862094        1.53086604650649     
   23.4000000000000        44.4899515625531        1.53087436589534     
   23.5000000000000        44.4901933177874        1.53088268455782     
   23.6000000000000        44.4904350519207        1.53089100249423     
   23.7000000000000        44.4906767649615        1.53089931970486     
   23.8000000000000        44.4909184569183        1.53090763619000     
   23.9000000000000        44.4911601277995        1.53091595194994     
   24.0000000000000        44.4914017776136        1.53092426698498     
   24.1000000000000        44.4916434063692        1.53093258129540     
   24.2000000000000        44.4918850140746        1.53094089488150     
   24.3000000000000        44.4921266007384        1.53094920774357     
   24.4000000000000        44.4923681663689        1.53095751988189     
   24.5000000000000        44.4926097109748        1.53096583129677     
   24.6000000000000        44.4928512345645        1.53097414198849     
   24.7000000000000        44.4930927371464        1.53098245195735     
   24.8000000000000        44.4933342187290        1.53099076120363     
   24.9000000000000        44.4935756793208        1.53099906972764     
   25.0000000000000        44.4938171189303        1.53100737752965     
   25.1000000000000        44.4940585375659        1.53101568460996     
   25.2000000000000        44.4942999352362        1.53102399096887     
   25.3000000000000        44.4945413119496        1.53103229660666     
   25.4000000000000        44.4947826677145        1.53104060152363     
   25.5000000000000        44.4950240025395        1.53104890572006     
   25.6000000000000        44.4952653164330        1.53105720919626     
   25.7000000000000        44.4955066094036        1.53106551195250     
   25.8000000000000        44.4957478814596        1.53107381398910     
   25.9000000000000        44.4959891326097        1.53108211530632     
   26.0000000000000        44.4962303628621        1.53109041590447     
   26.1000000000000        44.4964715722255        1.53109871578385     
   26.2000000000000        44.4967127607083        1.53110701494473     
   26.3000000000000        44.4969539283189        1.53111531338741     
   26.4000000000000        44.4971950750660        1.53112361111219     
   26.5000000000000        44.4974362009578        1.53113190811935     
   26.6000000000000        44.4976773060030        1.53114020440919     
   26.7000000000000        44.4979183902100        1.53114849998200     
   26.8000000000000        44.4981594535872        1.53115679483807     
   26.9000000000000        44.4984004961433        1.53116508897770     
   27.0000000000000        44.4986415178865        1.53117338240117     
   27.1000000000000        44.4988825188255        1.53118167510877     
   27.2000000000000        44.4991234989687        1.53118996710080     
