 # applied field (T), theta (degree), phi (degree), abs for RE 1-2
     0.00000   180.00000   360.00000     4.41002     0.00000     0.00000     0.00000
     0.10000   179.71879   180.00000     4.41002     0.00000     0.00000     0.00000
     0.20000   179.43757   180.00000     4.41001     0.00000     0.00000     0.00000
     0.30000   179.15633   180.00000     4.40999     0.00000     0.00000     0.00000
     0.40000   178.92192   180.00000     4.40997     0.00000     0.00000     0.00000
     0.50000   178.64060   180.00000     4.40994     0.00000     0.00000     0.00000
     0.60000   178.35924   180.00000     4.40991     0.00000     0.00000     0.00000
     0.70000   178.07781   180.00000     4.40987     0.00000     0.00000     0.00000
     0.80000   177.79630   180.00000     4.40982     0.00000     0.00000     0.00000
     0.90000   177.51471   180.00000     4.40976     0.00000     0.00000     0.00000
     1.00000   177.23302   180.00000     4.40970     0.00000     0.00000     0.00000
     1.10000   176.95122   180.00000     4.40963     0.00000     0.00000     0.00000
     1.20000   176.71628   180.00000     4.40956     0.00000     0.00000     0.00000
     1.30000   176.43425   180.00000     4.40948     0.00000     0.00000     0.00000
     1.40000   176.15208   180.00000     4.40939     0.00000     0.00000     0.00000
     1.50000   175.86976   180.00000     4.40930     0.00000     0.00000     0.00000
     1.60000   175.58728   180.00000     4.40920     0.00000     0.00000     0.00000
     1.70000   175.30462   180.00000     4.40909     0.00000     0.00000     0.00000
     1.80000   175.02179   180.00000     4.40897     0.00000     0.00000     0.00000
     1.90000   174.73875   180.00000     4.40885     0.00000     0.00000     0.00000
     2.00000   174.45551   180.00000     4.40872     0.00000     0.00000     0.00000
     2.10000   174.17206   180.00000     4.40859     0.00000     0.00000     0.00000
     2.20000   173.88837   180.00000     4.40845     0.00000     0.00000     0.00000
     2.30000   173.60445   180.00000     4.40830     0.00000     0.00000     0.00000
     2.40000   173.36763   180.00000     4.40817     0.00000     0.00000     0.00000
     2.50000   173.08324   180.00000     4.40801     0.00000     0.00000     0.00000
     2.60000   172.79858   180.00000     4.40784     0.00000     0.00000     0.00000
     2.70000   172.51364   180.00000     4.40767     0.00000     0.00000     0.00000
     2.80000   172.22841   180.00000     4.40749     0.00000     0.00000     0.00000
     2.90000   171.94288   180.00000     4.40731     0.00000     0.00000     0.00000
     3.00000   171.60938   180.00000     4.40709     0.00000     0.00000     0.00000
     3.10000   171.32316   180.00000     4.40689     0.00000     0.00000     0.00000
     3.20000   171.03659   180.00000     4.40668     0.00000     0.00000     0.00000
     3.30000   170.74968   180.00000     4.40647     0.00000     0.00000     0.00000
     3.40000   170.46242   180.00000     4.40625     0.00000     0.00000     0.00000
     3.50000   170.17478   180.00000     4.40603     0.00000     0.00000     0.00000
     3.60000   169.88677   180.00000     4.40580     0.00000     0.00000     0.00000
     3.70000   169.59836   180.00000     4.40556     0.00000     0.00000     0.00000
     3.80000   169.30956   180.00000     4.40532     0.00000     0.00000     0.00000
     3.90000   169.02034   180.00000     4.40508     0.00000     0.00000     0.00000
     4.00000   168.68243   180.00000     4.40478     0.00000     0.00000     0.00000
     4.10000   168.39229   180.00000     4.40452     0.00000     0.00000     0.00000
     4.20000   168.10170   180.00000     4.40425     0.00000     0.00000     0.00000
     4.30000   167.81067   180.00000     4.40398     0.00000     0.00000     0.00000
     4.40000   167.47057   180.00000     4.40366     0.00000     0.00000     0.00000
     4.50000   167.17852   180.00000     4.40338     0.00000     0.00000     0.00000
     4.60000   166.88598   180.00000     4.40309     0.00000     0.00000     0.00000
     4.70000   166.54409   180.00000     4.40274     0.00000     0.00000     0.00000
     4.80000   166.25046   180.00000     4.40244     0.00000     0.00000     0.00000
     4.90000   165.95632   180.00000     4.40214     0.00000     0.00000     0.00000
     5.00000   165.61252   180.00000     4.40177     0.00000     0.00000     0.00000
     5.10000   165.31722   180.00000     4.40146     0.00000     0.00000     0.00000
     5.20000   164.97205   180.00000     4.40108     0.00000     0.00000     0.00000
     5.30000   164.67555   180.00000     4.40075     0.00000     0.00000     0.00000
     5.40000   164.32896   180.00000     4.40036     0.00000     0.00000     0.00000
     5.50000   164.03121   180.00000     4.40002     0.00000     0.00000     0.00000
     5.60000   163.68315   180.00000     4.39962     0.00000     0.00000     0.00000
     5.70000   163.33426   180.00000     4.39922     0.00000     0.00000     0.00000
     5.80000   163.03451   180.00000     4.39886     0.00000     0.00000     0.00000
     5.90000   162.68408   180.00000     4.39844     0.00000     0.00000     0.00000
     6.00000   162.33279   180.00000     4.39802     0.00000     0.00000     0.00000
     6.10000   162.03094   180.00000     4.39765     0.00000     0.00000     0.00000
     6.20000   161.67802   180.00000     4.39721     0.00000     0.00000     0.00000
     6.30000   161.32421   180.00000     4.39677     0.00000     0.00000     0.00000
     6.40000   160.96949   180.00000     4.39632     0.00000     0.00000     0.00000
     6.50000   160.61384   180.00000     4.39587     0.00000     0.00000     0.00000
     6.60000   160.25727   180.00000     4.39541     0.00000     0.00000     0.00000
     6.70000   159.89974   180.00000     4.39495     0.00000     0.00000     0.00000
     6.80000   159.54126   180.00000     4.39448     0.00000     0.00000     0.00000
     6.90000   159.18181   180.00000     4.39401     0.00000     0.00000     0.00000
     7.00000   158.76987   180.00000     4.39347     0.00000     0.00000     0.00000
     7.10000   158.40830   180.00000     4.39299     0.00000     0.00000     0.00000
     7.20000   158.04572   180.00000     4.39250     0.00000     0.00000     0.00000
     7.30000   157.63018   180.00000     4.39195     0.00000     0.00000     0.00000
     7.40000   157.26541   180.00000     4.39145     0.00000     0.00000     0.00000
     7.50000   156.84734   180.00000     4.39089     0.00000     0.00000     0.00000
     7.60000   156.48034   180.00000     4.39038     0.00000     0.00000     0.00000
     7.70000   156.05969   180.00000     4.38981     0.00000     0.00000     0.00000
     7.80000   155.63765   180.00000     4.38923     0.00000     0.00000     0.00000
     7.90000   155.21421   180.00000     4.38865     0.00000     0.00000     0.00000
     8.00000   154.78935   180.00000     4.38807     0.00000     0.00000     0.00000
     8.10000   154.36306   180.00000     4.38748     0.00000     0.00000     0.00000
     8.20000   153.93534   180.00000     4.38689     0.00000     0.00000     0.00000
     8.30000   153.50618   180.00000     4.38629     0.00000     0.00000     0.00000
     8.40000   153.07556   180.00000     4.38570     0.00000     0.00000     0.00000
     8.50000   152.58944   180.00000     4.38503     0.00000     0.00000     0.00000
     8.60000   152.15571   180.00000     4.38443     0.00000     0.00000     0.00000
     8.70000   151.66607   180.00000     4.38376     0.00000     0.00000     0.00000
     8.80000   151.17457   180.00000     4.38309     0.00000     0.00000     0.00000
     8.90000   150.68119   180.00000     4.38241     0.00000     0.00000     0.00000
     9.00000   150.18593   180.00000     4.38174     0.00000     0.00000     0.00000
     9.10000   149.68878   180.00000     4.38107     0.00000     0.00000     0.00000
     9.20000   149.13426   180.00000     4.38033     0.00000     0.00000     0.00000
     9.30000   148.57742   180.00000     4.37959     0.00000     0.00000     0.00000
     9.40000   148.07419   180.00000     4.37892     0.00000     0.00000     0.00000
     9.50000   147.51294   180.00000     4.37818     0.00000     0.00000     0.00000
     9.60000   146.89296   180.00000     4.37738     0.00000     0.00000     0.00000
     9.70000   146.32686   180.00000     4.37665     0.00000     0.00000     0.00000
     9.80000   145.70158   180.00000     4.37586     0.00000     0.00000     0.00000
     9.90000   145.07354   180.00000     4.37508     0.00000     0.00000     0.00000
    10.00000   144.38538   180.00000     4.37423     0.00000     0.00000     0.00000
    10.10000   143.75166   180.00000     4.37347     0.00000     0.00000     0.00000
    10.20000   143.05737   180.00000     4.37264     0.00000     0.00000     0.00000
    10.30000   142.30175   180.00000     4.37176     0.00000     0.00000     0.00000
    10.40000   141.54250   180.00000     4.37090     0.00000     0.00000     0.00000
    10.50000   140.77969   180.00000     4.37006     0.00000     0.00000     0.00000
    10.60000   139.95437   180.00000     4.36917     0.00000     0.00000     0.00000
    10.70000   139.06578   180.00000     4.36824     0.00000     0.00000     0.00000
    10.80000   138.17278   180.00000     4.36734     0.00000     0.00000     0.00000
    10.90000   137.21559   180.00000     4.36641     0.00000     0.00000     0.00000
    11.00000   136.25370   180.00000     4.36551     0.00000     0.00000     0.00000
    11.10000   135.16628   180.00000     4.36454     0.00000     0.00000     0.00000
    11.20000   134.01258   180.00000     4.36356     0.00000     0.00000     0.00000
    11.30000   132.73084   180.00000     4.36254     0.00000     0.00000     0.00000
    11.40000   131.38101   180.00000     4.36154     0.00000     0.00000     0.00000
    11.50000   129.90088   180.00000     4.36052     0.00000     0.00000     0.00000
    11.60000   128.28917   180.00000     4.35950     0.00000     0.00000     0.00000
    11.70000   126.41995   180.00000     4.35844     0.00000     0.00000     0.00000
    11.80000   124.35329   180.00000     4.35739     0.00000     0.00000     0.00000
    11.90000   121.96174   180.00000     4.35635     0.00000     0.00000     0.00000
    12.00000   119.11601   180.00000     4.35530     0.00000     0.00000     0.00000
    12.10000   115.68543   180.00000     4.35427     0.00000     0.00000     0.00000
    12.20000   111.41059   180.00000     4.35326     0.00000     0.00000     0.00000
    12.30000   105.83726   180.00000     4.35229     0.00000     0.00000     0.00000
    12.40000    97.02631   180.00000     4.35137     0.00000     0.00000     0.00000
    12.50000    90.00000   180.00000     4.35111     0.00000     0.00000     0.00000
    12.60000    90.00000   180.00000     4.35106     0.00000     0.00000     0.00000
    12.70000    90.00000   180.00000     4.35102     0.00000     0.00000     0.00000
    12.80000    90.00000   180.00000     4.35097     0.00000     0.00000     0.00000
    12.90000    90.00000   180.00000     4.35093     0.00000     0.00000     0.00000
    13.00000    90.00000   180.00000     4.35089     0.00000     0.00000     0.00000
    13.10000    90.00000   180.00000     4.35084     0.00000     0.00000     0.00000
    13.20000    90.00000   180.00000     4.35080     0.00000     0.00000     0.00000
    13.30000    90.00000   180.00000     4.35075     0.00000     0.00000     0.00000
    13.40000    90.00000   180.00000     4.35071     0.00000     0.00000     0.00000
    13.50000    90.00000   180.00000     4.35066     0.00000     0.00000     0.00000
    13.60000    90.00000   180.00000     4.35062     0.00000     0.00000     0.00000
    13.70000    90.00000   180.00000     4.35058     0.00000     0.00000     0.00000
    13.80000    90.00000   180.00000     4.35053     0.00000     0.00000     0.00000
    13.90000    90.00000   180.00000     4.35049     0.00000     0.00000     0.00000
    14.00000    90.00000   180.00000     4.35044     0.00000     0.00000     0.00000
    14.10000    90.00000   180.00000     4.35040     0.00000     0.00000     0.00000
    14.20000    90.00000   180.00000     4.35035     0.00000     0.00000     0.00000
    14.30000    90.00000   180.00000     4.35031     0.00000     0.00000     0.00000
    14.40000    90.00000   180.00000     4.35027     0.00000     0.00000     0.00000
    14.50000    90.00000   180.00000     4.35022     0.00000     0.00000     0.00000
    14.60000    90.00000   180.00000     4.35018     0.00000     0.00000     0.00000
    14.70000    90.00000   180.00000     4.35013     0.00000     0.00000     0.00000
    14.80000    90.00000   180.00000     4.35009     0.00000     0.00000     0.00000
    14.90000    90.00000   180.00000     4.35004     0.00000     0.00000     0.00000
    15.00000    90.00000   180.00000     4.35000     0.00000     0.00000     0.00000
    15.10000    90.00000   180.00000     4.34996     0.00000     0.00000     0.00000
    15.20000    90.00000   180.00000     4.34991     0.00000     0.00000     0.00000
    15.30000    90.00000   180.00000     4.34987     0.00000     0.00000     0.00000
    15.40000    90.00000   180.00000     4.34982     0.00000     0.00000     0.00000
    15.50000    90.00000   180.00000     4.34978     0.00000     0.00000     0.00000
    15.60000    90.00000   180.00000     4.34973     0.00000     0.00000     0.00000
    15.70000    90.00000   180.00000     4.34969     0.00000     0.00000     0.00000
    15.80000    90.00000   180.00000     4.34964     0.00000     0.00000     0.00000
    15.90000    90.00000   180.00000     4.34960     0.00000     0.00000     0.00000
    16.00000    90.00000   180.00000     4.34956     0.00000     0.00000     0.00000
    16.10000    90.00000   180.00000     4.34951     0.00000     0.00000     0.00000
    16.20000    90.00000   180.00000     4.34947     0.00000     0.00000     0.00000
    16.30000    90.00000   180.00000     4.34942     0.00000     0.00000     0.00000
    16.40000    90.00000   180.00000     4.34938     0.00000     0.00000     0.00000
    16.50000    90.00000   180.00000     4.34933     0.00000     0.00000     0.00000
    16.60000    90.00000   180.00000     4.34929     0.00000     0.00000     0.00000
    16.70000    90.00000   180.00000     4.34924     0.00000     0.00000     0.00000
    16.80000    90.00000   180.00000     4.34920     0.00000     0.00000     0.00000
    16.90000    90.00000   180.00000     4.34916     0.00000     0.00000     0.00000
    17.00000    90.00000   180.00000     4.34911     0.00000     0.00000     0.00000
    17.10000    90.00000   180.00000     4.34907     0.00000     0.00000     0.00000
    17.20000    90.00000   180.00000     4.34902     0.00000     0.00000     0.00000
    17.30000    90.00000   180.00000     4.34898     0.00000     0.00000     0.00000
    17.40000    90.00000   180.00000     4.34893     0.00000     0.00000     0.00000
    17.50000    90.00000   180.00000     4.34889     0.00000     0.00000     0.00000
    17.60000    90.00000   180.00000     4.34884     0.00000     0.00000     0.00000
    17.70000    90.00000   180.00000     4.34880     0.00000     0.00000     0.00000
    17.80000    90.00000   180.00000     4.34876     0.00000     0.00000     0.00000
    17.90000    90.00000   180.00000     4.34871     0.00000     0.00000     0.00000
    18.00000    90.00000   180.00000     4.34867     0.00000     0.00000     0.00000
    18.10000    90.00000   180.00000     4.34862     0.00000     0.00000     0.00000
    18.20000    90.00000   180.00000     4.34858     0.00000     0.00000     0.00000
    18.30000    90.00000   180.00000     4.34853     0.00000     0.00000     0.00000
    18.40000    90.00000   180.00000     4.34849     0.00000     0.00000     0.00000
    18.50000    90.00000   180.00000     4.34844     0.00000     0.00000     0.00000
    18.60000    90.00000   180.00000     4.34840     0.00000     0.00000     0.00000
    18.70000    90.00000   180.00000     4.34835     0.00000     0.00000     0.00000
    18.80000    90.00000   180.00000     4.34831     0.00000     0.00000     0.00000
    18.90000    90.00000   180.00000     4.34827     0.00000     0.00000     0.00000
    19.00000    90.00000   180.00000     4.34822     0.00000     0.00000     0.00000
    19.10000    90.00000   180.00000     4.34818     0.00000     0.00000     0.00000
    19.20000    90.00000   180.00000     4.34813     0.00000     0.00000     0.00000
    19.30000    90.00000   180.00000     4.34809     0.00000     0.00000     0.00000
    19.40000    90.00000   180.00000     4.34804     0.00000     0.00000     0.00000
    19.50000    90.00000   180.00000     4.34800     0.00000     0.00000     0.00000
    19.60000    90.00000   180.00000     4.34795     0.00000     0.00000     0.00000
    19.70000    90.00000   180.00000     4.34791     0.00000     0.00000     0.00000
    19.80000    90.00000   180.00000     4.34786     0.00000     0.00000     0.00000
    19.90000    90.00000   180.00000     4.34782     0.00000     0.00000     0.00000
    20.00000    90.00000   180.00000     4.34777     0.00000     0.00000     0.00000
    20.10000    90.00000   180.00000     4.34773     0.00000     0.00000     0.00000
    20.20000    90.00000   180.00000     4.34769     0.00000     0.00000     0.00000
    20.30000    90.00000   180.00000     4.34764     0.00000     0.00000     0.00000
    20.40000    90.00000   180.00000     4.34760     0.00000     0.00000     0.00000
    20.50000    90.00000   180.00000     4.34755     0.00000     0.00000     0.00000
    20.60000    90.00000   180.00000     4.34751     0.00000     0.00000     0.00000
    20.70000    90.00000   180.00000     4.34746     0.00000     0.00000     0.00000
    20.80000    90.00000   180.00000     4.34742     0.00000     0.00000     0.00000
    20.90000    90.00000   180.00000     4.34737     0.00000     0.00000     0.00000
    21.00000    90.00000   180.00000     4.34733     0.00000     0.00000     0.00000
    21.10000    90.00000   180.00000     4.34728     0.00000     0.00000     0.00000
    21.20000    90.00000   180.00000     4.34724     0.00000     0.00000     0.00000
    21.30000    90.00000   180.00000     4.34719     0.00000     0.00000     0.00000
    21.40000    90.00000   180.00000     4.34715     0.00000     0.00000     0.00000
    21.50000    90.00000   180.00000     4.34710     0.00000     0.00000     0.00000
    21.60000    90.00000   180.00000     4.34706     0.00000     0.00000     0.00000
    21.70000    90.00000   180.00000     4.34701     0.00000     0.00000     0.00000
    21.80000    90.00000   180.00000     4.34697     0.00000     0.00000     0.00000
    21.90000    90.00000   180.00000     4.34692     0.00000     0.00000     0.00000
    22.00000    90.00000   180.00000     4.34688     0.00000     0.00000     0.00000
    22.10000    90.00000   180.00000     4.34684     0.00000     0.00000     0.00000
    22.20000    90.00000   180.00000     4.34679     0.00000     0.00000     0.00000
    22.30000    90.00000   180.00000     4.34675     0.00000     0.00000     0.00000
    22.40000    90.00000   180.00000     4.34670     0.00000     0.00000     0.00000
    22.50000    90.00000   180.00000     4.34666     0.00000     0.00000     0.00000
    22.60000    90.00000   180.00000     4.34661     0.00000     0.00000     0.00000
    22.70000    90.00000   180.00000     4.34657     0.00000     0.00000     0.00000
    22.80000    90.00000   180.00000     4.34652     0.00000     0.00000     0.00000
    22.90000    90.00000   180.00000     4.34648     0.00000     0.00000     0.00000
    23.00000    90.00000   180.00000     4.34643     0.00000     0.00000     0.00000
    23.10000    90.00000   180.00000     4.34639     0.00000     0.00000     0.00000
    23.20000    90.00000   180.00000     4.34634     0.00000     0.00000     0.00000
    23.30000    90.00000   180.00000     4.34630     0.00000     0.00000     0.00000
