 # applied field (T), theta (degree), phi (degree), abs
     0.00000     0.00000     0.00000    37.47044
     0.10000     1.08917    45.00000    37.47044
     0.20000     2.17834    45.00000    37.47044
     0.30000     3.26752    45.00000    37.47044
     0.40000     4.35669    45.00000    37.47044
     0.50000     5.50318    45.00000    37.47044
     0.60000     6.59236    45.00000    37.47044
     0.70000     7.68153    45.00000    37.47044
     0.80000     8.82803    45.00000    37.47044
     0.90000     9.97452    45.00000    37.47044
     1.00000    11.06369    45.00000    37.47044
     1.10000    12.21019    45.00000    37.47044
     1.20000    13.41401    45.00000    37.47044
     1.30000    14.56051    45.00000    37.47044
     1.40000    15.76433    45.00000    37.47044
     1.50000    16.96815    45.00000    37.47044
     1.60000    18.17197    45.00000    37.47044
     1.70000    19.43312    45.00000    37.47044
     1.80000    20.69427    45.00000    37.47044
     1.90000    22.01274    45.00000    37.47044
     2.00000    23.33121    45.00000    37.47044
     2.10000    24.70701    45.00000    37.47044
     2.20000    26.08280    45.00000    37.47044
     2.30000    27.51592    45.00000    37.47044
     2.40000    28.94904    45.00000    37.47044
     2.50000    30.49682    45.00000    37.47044
     2.60000    32.10191    45.00000    37.47044
     2.70000    33.70701    45.00000    37.47044
     2.80000    35.42675    45.00000    37.47044
     2.90000    37.26115    45.00000    37.47044
     3.00000    39.15287    45.00000    37.47044
     3.10000    41.21656    45.00000    37.47044
     3.20000    43.39490    45.00000    37.47044
     3.30000    45.74522    45.00000    37.47044
     3.40000    48.32484    45.00000    37.47044
     3.50000    51.19108    45.00000    37.47044
     3.60000    54.51592    45.00000    37.47044
     3.70000    58.47134    45.00000    37.47044
     3.80000    63.40127    45.00000    37.47044
     3.90000    70.39490    45.00000    37.47044
     4.00000    90.00000    45.00000    37.47044
     4.10000    90.00000    45.00000    37.47044
     4.20000    90.00000    45.00000    37.47044
     4.30000    90.00000    45.00000    37.47044
     4.40000    90.00000    45.00000    37.47044
     4.50000    90.00000    45.00000    37.47044
     4.60000    90.00000    45.00000    37.47044
     4.70000    90.00000    45.00000    37.47044
     4.80000    90.00000    45.00000    37.47044
     4.90000    90.00000    45.00000    37.47044
     5.00000    90.00000    45.00000    37.47044
     5.10000    90.00000    45.00000    37.47044
     5.20000    90.00000    45.00000    37.47044
     5.30000    90.00000    45.00000    37.47044
     5.40000    90.00000    45.00000    37.47044
     5.50000    90.00000    45.00000    37.47044
     5.60000    90.00000    45.00000    37.47044
     5.70000    90.00000    45.00000    37.47044
     5.80000    90.00000    45.00000    37.47044
     5.90000    90.00000    45.00000    37.47044
     6.00000    90.00000    45.00000    37.47044
     6.10000    90.00000    45.00000    37.47044
     6.20000    90.00000    45.00000    37.47044
     6.30000    90.00000    45.00000    37.47044
     6.40000    90.00000    45.00000    37.47044
     6.50000    90.00000    45.00000    37.47044
     6.60000    90.00000    45.00000    37.47044
     6.70000    90.00000    45.00000    37.47044
     6.80000    90.00000    45.00000    37.47044
     6.90000    90.00000    45.00000    37.47044
     7.00000    90.00000    45.00000    37.47044
     7.10000    90.00000    45.00000    37.47044
     7.20000    90.00000    45.00000    37.47044
     7.30000    90.00000    45.00000    37.47044
     7.40000    90.00000    45.00000    37.47044
     7.50000    90.00000    45.00000    37.47044
     7.60000    90.00000    45.00000    37.47044
     7.70000    90.00000    45.00000    37.47044
     7.80000    90.00000    45.00000    37.47044
     7.90000    90.00000    45.00000    37.47044
     8.00000    90.00000    45.00000    37.47044
     8.10000    90.00000    45.00000    37.47044
     8.20000    90.00000    45.00000    37.47044
     8.30000    90.00000    45.00000    37.47044
     8.40000    90.00000    45.00000    37.47044
     8.50000    90.00000    45.00000    37.47044
     8.60000    90.00000    45.00000    37.47044
     8.70000    90.00000    45.00000    37.47044
     8.80000    90.00000    45.00000    37.47044
     8.90000    90.00000    45.00000    37.47044
     9.00000    90.00000    45.00000    37.47044
     9.10000    90.00000    45.00000    37.47044
     9.20000    90.00000    45.00000    37.47044
     9.30000    90.00000    45.00000    37.47044
     9.40000    90.00000    45.00000    37.47044
     9.50000    90.00000    45.00000    37.47044
     9.60000    90.00000    45.00000    37.47044
     9.70000    90.00000    45.00000    37.47044
     9.80000    90.00000    45.00000    37.47044
     9.90000    90.00000    45.00000    37.47044
    10.00000    90.00000    45.00000    37.47044
    10.10000    90.00000    45.00000    37.47044
    10.20000    90.00000    45.00000    37.47044
    10.30000    90.00000    45.00000    37.47044
    10.40000    90.00000    45.00000    37.47044
    10.50000    90.00000    45.00000    37.47044
    10.60000    90.00000    45.00000    37.47044
    10.70000    90.00000    45.00000    37.47044
    10.80000    90.00000    45.00000    37.47044
    10.90000    90.00000    45.00000    37.47044
    11.00000    90.00000    45.00000    37.47044
    11.10000    90.00000    45.00000    37.47044
    11.20000    90.00000    45.00000    37.47044
    11.30000    90.00000    45.00000    37.47044
    11.40000    90.00000    45.00000    37.47044
    11.50000    90.00000    45.00000    37.47044
    11.60000    90.00000    45.00000    37.47044
    11.70000    90.00000    45.00000    37.47044
    11.80000    90.00000    45.00000    37.47044
    11.90000    90.00000    45.00000    37.47044
    12.00000    90.00000    45.00000    37.47044
    12.10000    90.00000    45.00000    37.47044
    12.20000    90.00000    45.00000    37.47044
    12.30000    90.00000    45.00000    37.47044
    12.40000    90.00000    45.00000    37.47044
    12.50000    90.00000    45.00000    37.47044
    12.60000    90.00000    45.00000    37.47044
    12.70000    90.00000    45.00000    37.47044
    12.80000    90.00000    45.00000    37.47044
    12.90000    90.00000    45.00000    37.47044
    13.00000    90.00000    45.00000    37.47044
    13.10000    90.00000    45.00000    37.47044
    13.20000    90.00000    45.00000    37.47044
    13.30000    90.00000    45.00000    37.47044
    13.40000    90.00000    45.00000    37.47044
    13.50000    90.00000    45.00000    37.47044
    13.60000    90.00000    45.00000    37.47044
    13.70000    90.00000    45.00000    37.47044
    13.80000    90.00000    45.00000    37.47044
    13.90000    90.00000    45.00000    37.47044
    14.00000    90.00000    45.00000    37.47044
    14.10000    90.00000    45.00000    37.47044
    14.20000    90.00000    45.00000    37.47044
    14.30000    90.00000    45.00000    37.47044
    14.40000    90.00000    45.00000    37.47044
    14.50000    90.00000    45.00000    37.47044
    14.60000    90.00000    45.00000    37.47044
    14.70000    90.00000    45.00000    37.47044
    14.80000    90.00000    45.00000    37.47044
    14.90000    90.00000    45.00000    37.47044
    15.00000    90.00000    45.00000    37.47044
    15.10000    90.00000    45.00000    37.47044
    15.20000    90.00000    45.00000    37.47044
    15.30000    90.00000    45.00000    37.47044
    15.40000    90.00000    45.00000    37.47044
    15.50000    90.00000    45.00000    37.47044
    15.60000    90.00000    45.00000    37.47044
    15.70000    90.00000    45.00000    37.47044
    15.80000    90.00000    45.00000    37.47044
    15.90000    90.00000    45.00000    37.47044
    16.00000    90.00000    45.00000    37.47044
    16.10000    90.00000    45.00000    37.47044
    16.20000    90.00000    45.00000    37.47044
    16.30000    90.00000    45.00000    37.47044
    16.40000    90.00000    45.00000    37.47044
    16.50000    90.00000    45.00000    37.47044
    16.60000    90.00000    45.00000    37.47044
    16.70000    90.00000    45.00000    37.47044
    16.80000    90.00000    45.00000    37.47044
    16.90000    90.00000    45.00000    37.47044
    17.00000    90.00000    45.00000    37.47044
    17.10000    90.00000    45.00000    37.47044
    17.20000    90.00000    45.00000    37.47044
    17.30000    90.00000    45.00000    37.47044
    17.40000    90.00000    45.00000    37.47044
    17.50000    90.00000    45.00000    37.47044
    17.60000    90.00000    45.00000    37.47044
    17.70000    90.00000    45.00000    37.47044
    17.80000    90.00000    45.00000    37.47044
    17.90000    90.00000    45.00000    37.47044
    18.00000    90.00000    45.00000    37.47044
    18.10000    90.00000    45.00000    37.47044
    18.20000    90.00000    45.00000    37.47044
    18.30000    90.00000    45.00000    37.47044
    18.40000    90.00000    45.00000    37.47044
    18.50000    90.00000    45.00000    37.47044
    18.60000    90.00000    45.00000    37.47044
    18.70000    90.00000    45.00000    37.47044
    18.80000    90.00000    45.00000    37.47044
    18.90000    90.00000    45.00000    37.47044
    19.00000    90.00000    45.00000    37.47044
    19.10000    90.00000    45.00000    37.47044
    19.20000    90.00000    45.00000    37.47044
    19.30000    90.00000    45.00000    37.47044
    19.40000    90.00000    45.00000    37.47044
    19.50000    90.00000    45.00000    37.47044
    19.60000    90.00000    45.00000    37.47044
    19.70000    90.00000    45.00000    37.47044
    19.80000    90.00000    45.00000    37.47044
    19.90000    90.00000    45.00000    37.47044
    20.00000    90.00000    45.00000    37.47044
    20.10000    90.00000    45.00000    37.47044
    20.20000    90.00000    45.00000    37.47044
    20.30000    90.00000    45.00000    37.47044
    20.40000    90.00000    45.00000    37.47044
    20.50000    90.00000    45.00000    37.47044
    20.60000    90.00000    45.00000    37.47044
    20.70000    90.00000    45.00000    37.47044
    20.80000    90.00000    45.00000    37.47044
    20.90000    90.00000    45.00000    37.47044
    21.00000    90.00000    45.00000    37.47044
    21.10000    90.00000    45.00000    37.47044
    21.20000    90.00000    45.00000    37.47044
    21.30000    90.00000    45.00000    37.47044
    21.40000    90.00000    45.00000    37.47044
    21.50000    90.00000    45.00000    37.47044
    21.60000    90.00000    45.00000    37.47044
    21.70000    90.00000    45.00000    37.47044
    21.80000    90.00000    45.00000    37.47044
    21.90000    90.00000    45.00000    37.47044
    22.00000    90.00000    45.00000    37.47044
    22.10000    90.00000    45.00000    37.47044
    22.20000    90.00000    45.00000    37.47044
    22.30000    90.00000    45.00000    37.47044
    22.40000    90.00000    45.00000    37.47044
    22.50000    90.00000    45.00000    37.47044
    22.60000    90.00000    45.00000    37.47044
    22.70000    90.00000    45.00000    37.47044
    22.80000    90.00000    45.00000    37.47044
    22.90000    90.00000    45.00000    37.47044
    23.00000    90.00000    45.00000    37.47044
    23.10000    90.00000    45.00000    37.47044
    23.20000    90.00000    45.00000    37.47044
    23.30000    90.00000    45.00000    37.47044
    23.40000    90.00000    45.00000    37.47044
    23.50000    90.00000    45.00000    37.47044
    23.60000    90.00000    45.00000    37.47044
    23.70000    90.00000    45.00000    37.47044
    23.80000    90.00000    45.00000    37.47044
    23.90000    90.00000    45.00000    37.47044
    24.00000    90.00000    45.00000    37.47044
    24.10000    90.00000    45.00000    37.47044
    24.20000    90.00000    45.00000    37.47044
    24.30000    90.00000    45.00000    37.47044
    24.40000    90.00000    45.00000    37.47044
    24.50000    90.00000    45.00000    37.47044
    24.60000    90.00000    45.00000    37.47044
    24.70000    90.00000    45.00000    37.47044
    24.80000    90.00000    45.00000    37.47044
    24.90000    90.00000    45.00000    37.47044
    25.00000    90.00000    45.00000    37.47044
    25.10000    90.00000    45.00000    37.47044
    25.20000    90.00000    45.00000    37.47044
    25.30000    90.00000    45.00000    37.47044
    25.40000    90.00000    45.00000    37.47044
    25.50000    90.00000    45.00000    37.47044
    25.60000    90.00000    45.00000    37.47044
    25.70000    90.00000    45.00000    37.47044
    25.80000    90.00000    45.00000    37.47044
    25.90000    90.00000    45.00000    37.47044
    26.00000    90.00000    45.00000    37.47044
    26.10000    90.00000    45.00000    37.47044
    26.20000    90.00000    45.00000    37.47044
    26.30000    90.00000    45.00000    37.47044
    26.40000    90.00000    45.00000    37.47044
    26.50000    90.00000    45.00000    37.47044
    26.60000    90.00000    45.00000    37.47044
    26.70000    90.00000    45.00000    37.47044
    26.80000    90.00000    45.00000    37.47044
    26.90000    90.00000    45.00000    37.47044
    27.00000    90.00000    45.00000    37.47044
    27.10000    90.00000    45.00000    37.47044
    27.20000    90.00000    45.00000    37.47044
    27.30000    90.00000    45.00000    37.47044
    27.40000    90.00000    45.00000    37.47044
    27.50000    90.00000    45.00000    37.47044
    27.60000    90.00000    45.00000    37.47044
    27.70000    90.00000    45.00000    37.47044
    27.80000    90.00000    45.00000    37.47044
    27.90000    90.00000    45.00000    37.47044
    28.00000    90.00000    45.00000    37.47044
    28.10000    90.00000    45.00000    37.47044
    28.20000    90.00000    45.00000    37.47044
    28.30000    90.00000    45.00000    37.47044
    28.40000    90.00000    45.00000    37.47044
    28.50000    90.00000    45.00000    37.47044
    28.60000    90.00000    45.00000    37.47044
    28.70000    90.00000    45.00000    37.47044
    28.80000    90.00000    45.00000    37.47044
    28.90000    90.00000    45.00000    37.47044
    29.00000    90.00000    45.00000    37.47044
    29.10000    90.00000    45.00000    37.47044
    29.20000    90.00000    45.00000    37.47044
    29.30000    90.00000    45.00000    37.47044
    29.40000    90.00000    45.00000    37.47044
    29.50000    90.00000    45.00000    37.47044
    29.60000    90.00000    45.00000    37.47044
    29.70000    90.00000    45.00000    37.47044
    29.80000    90.00000    45.00000    37.47044
    29.90000    90.00000    45.00000    37.47044
    30.00000    90.00000    45.00000    37.47044
    30.10000    90.00000    45.00000    37.47044
    30.20000    90.00000    45.00000    37.47044
    30.30000    90.00000    45.00000    37.47044
    30.40000    90.00000    45.00000    37.47044
    30.50000    90.00000    45.00000    37.47044
    30.60000    90.00000    45.00000    37.47044
    30.70000    90.00000    45.00000    37.47044
    30.80000    90.00000    45.00000    37.47044
    30.90000    90.00000    45.00000    37.47044
    31.00000    90.00000    45.00000    37.47044
    31.10000    90.00000    45.00000    37.47044
    31.20000    90.00000    45.00000    37.47044
    31.30000    90.00000    45.00000    37.47044
    31.40000    90.00000    45.00000    37.47044
    31.50000    90.00000    45.00000    37.47044
    31.60000    90.00000    45.00000    37.47044
    31.70000    90.00000    45.00000    37.47044
    31.80000    90.00000    45.00000    37.47044
    31.90000    90.00000    45.00000    37.47044
    32.00000    90.00000    45.00000    37.47044
    32.10000    90.00000    45.00000    37.47044
    32.20000    90.00000    45.00000    37.47044
    32.30000    90.00000    45.00000    37.47044
    32.40000    90.00000    45.00000    37.47044
    32.50000    90.00000    45.00000    37.47044
    32.60000    90.00000    45.00000    37.47044
    32.70000    90.00000    45.00000    37.47044
    32.80000    90.00000    45.00000    37.47044
    32.90000    90.00000    45.00000    37.47044
    33.00000    90.00000    45.00000    37.47044
    33.10000    90.00000    45.00000    37.47044
    33.20000    90.00000    45.00000    37.47044
    33.30000    90.00000    45.00000    37.47044
    33.40000    90.00000    45.00000    37.47044
    33.50000    90.00000    45.00000    37.47044
    33.60000    90.00000    45.00000    37.47044
    33.70000    90.00000    45.00000    37.47044
    33.80000    90.00000    45.00000    37.47044
    33.90000    90.00000    45.00000    37.47044
    34.00000    90.00000    45.00000    37.47044
    34.10000    90.00000    45.00000    37.47044
    34.20000    90.00000    45.00000    37.47044
    34.30000    90.00000    45.00000    37.47044
    34.40000    90.00000    45.00000    37.47044
    34.50000    90.00000    45.00000    37.47044
    34.60000    90.00000    45.00000    37.47044
    34.70000    90.00000    45.00000    37.47044
    34.80000    90.00000    45.00000    37.47044
    34.90000    90.00000    45.00000    37.47044
    35.00000    90.00000    45.00000    37.47044
    35.10000    90.00000    45.00000    37.47044
    35.20000    90.00000    45.00000    37.47044
    35.30000    90.00000    45.00000    37.47044
    35.40000    90.00000    45.00000    37.47044
    35.50000    90.00000    45.00000    37.47044
    35.60000    90.00000    45.00000    37.47044
    35.70000    90.00000    45.00000    37.47044
    35.80000    90.00000    45.00000    37.47044
    35.90000    90.00000    45.00000    37.47044
    36.00000    90.00000    45.00000    37.47044
    36.10000    90.00000    45.00000    37.47044
    36.20000    90.00000    45.00000    37.47044
    36.30000    90.00000    45.00000    37.47044
    36.40000    90.00000    45.00000    37.47044
    36.50000    90.00000    45.00000    37.47044
    36.60000    90.00000    45.00000    37.47044
    36.70000    90.00000    45.00000    37.47044
    36.80000    90.00000    45.00000    37.47044
    36.90000    90.00000    45.00000    37.47044
    37.00000    90.00000    45.00000    37.47044
    37.10000    90.00000    45.00000    37.47044
    37.20000    90.00000    45.00000    37.47044
    37.30000    90.00000    45.00000    37.47044
    37.40000    90.00000    45.00000    37.47044
    37.50000    90.00000    45.00000    37.47044
    37.60000    90.00000    45.00000    37.47044
    37.70000    90.00000    45.00000    37.47044
    37.80000    90.00000    45.00000    37.47044
    37.90000    90.00000    45.00000    37.47044
    38.00000    90.00000    45.00000    37.47044
    38.10000    90.00000    45.00000    37.47044
    38.20000    90.00000    45.00000    37.47044
    38.30000    90.00000    45.00000    37.47044
    38.40000    90.00000    45.00000    37.47044
    38.50000    90.00000    45.00000    37.47044
    38.60000    90.00000    45.00000    37.47044
    38.70000    90.00000    45.00000    37.47044
    38.80000    90.00000    45.00000    37.47044
    38.90000    90.00000    45.00000    37.47044
    39.00000    90.00000    45.00000    37.47044
    39.10000    90.00000    45.00000    37.47044
    39.20000    90.00000    45.00000    37.47044
    39.30000    90.00000    45.00000    37.47044
    39.40000    90.00000    45.00000    37.47044
    39.50000    90.00000    45.00000    37.47044
    39.60000    90.00000    45.00000    37.47044
    39.70000    90.00000    45.00000    37.47044
    39.80000    90.00000    45.00000    37.47044
    39.90000    90.00000    45.00000    37.47044
    40.00000    90.00000    45.00000    37.47044
