 # applied field (T), theta (degree), phi (degree), abs for RE 1-2
     0.00000   180.00000   180.00000     0.07820   180.00000   180.00000     0.07820
     0.10000   178.59134   180.00000     0.07822   178.37883   180.00000     0.07822
     0.20000   177.18426   180.00000     0.07828   176.75979   180.00000     0.07829
     0.30000   175.78032   180.00000     0.07837   175.14503   180.00000     0.07840
     0.40000   174.38105   180.00000     0.07851   173.53662   180.00000     0.07856
     0.50000   172.98793   180.00000     0.07868   171.93661   180.00000     0.07877
     0.60000   171.72137   180.00000     0.07887   170.48150   180.00000     0.07900
     0.70000   170.34398   180.00000     0.07912   168.90298   180.00000     0.07929
     0.80000   168.97675   180.00000     0.07940   167.33835   180.00000     0.07962
     0.90000   167.62094   180.00000     0.07972   165.78929   180.00000     0.07999
     1.00000   166.27773   180.00000     0.08008   164.25738   180.00000     0.08040
     1.10000   164.94824   180.00000     0.08047   162.74406   180.00000     0.08086
     1.20000   163.52087   180.00000     0.08093   161.12470   180.00000     0.08139
     1.30000   162.22316   180.00000     0.08139   159.65423   180.00000     0.08192
     1.40000   160.94206   180.00000     0.08188   158.20599   180.00000     0.08249
     1.50000   159.67833   180.00000     0.08240   156.78091   180.00000     0.08309
     1.60000   158.43264   180.00000     0.08295   155.37977   180.00000     0.08372
     1.70000   157.10060   180.00000     0.08358   153.88728   180.00000     0.08444
     1.80000   155.89432   180.00000     0.08419   152.53796   180.00000     0.08513
     1.90000   154.70762   180.00000     0.08483   151.21420   180.00000     0.08585
     2.00000   153.44101   180.00000     0.08555   149.80703   180.00000     0.08666
     2.10000   152.19815   180.00000     0.08630   148.43047   180.00000     0.08749
     2.20000   151.07531   180.00000     0.08702   147.18910   180.00000     0.08829
     2.30000   149.87859   180.00000     0.08782   145.87157   180.00000     0.08917
     2.40000   148.70598   180.00000     0.08865   144.58461   180.00000     0.09007
     2.50000   147.55743   180.00000     0.08950   143.32800   180.00000     0.09100
     2.60000   146.52147   180.00000     0.09030   142.19669   180.00000     0.09186
     2.70000   145.33189   180.00000     0.09126   140.90455   180.00000     0.09290
     2.80000   144.25445   180.00000     0.09217   139.73686   180.00000     0.09387
     2.90000   143.20015   180.00000     0.09310   138.59788   180.00000     0.09485
     3.00000   142.16861   180.00000     0.09404   137.48703   180.00000     0.09584
     3.10000   141.07992   180.00000     0.09508   136.31969   180.00000     0.09692
     3.20000   140.09432   180.00000     0.09605   135.26535   180.00000     0.09792
     3.30000   139.05410   180.00000     0.09712   134.15742   180.00000     0.09901
     3.40000   138.03808   180.00000     0.09820   133.07908   180.00000     0.10011
     3.50000   137.04559   180.00000     0.09929   132.02945   180.00000     0.10120
     3.60000   136.07591   180.00000     0.10039   131.00766   180.00000     0.10230
     3.70000   135.05914   180.00000     0.10159   129.94124   180.00000     0.10347
     3.80000   134.13440   180.00000     0.10270   128.97432   180.00000     0.10456
     3.90000   133.16416   180.00000     0.10391   127.96471   180.00000     0.10573
     4.00000   132.21663   180.00000     0.10513   126.98292   180.00000     0.10689
     4.10000   131.29087   180.00000     0.10634   126.02790   180.00000     0.10804
     4.20000   130.38593   180.00000     0.10756   125.09860   180.00000     0.10918
     4.30000   129.44074   180.00000     0.10887   124.13329   180.00000     0.11038
     4.40000   128.51718   180.00000     0.11018   123.19495   180.00000     0.11157
     4.50000   127.61414   180.00000     0.11148   122.28240   180.00000     0.11274
     4.60000   126.73056   180.00000     0.11278   121.39451   180.00000     0.11389
     4.70000   125.81041   180.00000     0.11416   120.47585   180.00000     0.11510
     4.80000   124.90993   180.00000     0.11553   119.58256   180.00000     0.11629
     4.90000   124.02793   180.00000     0.11689   118.71343   180.00000     0.11745
     5.00000   123.11174   180.00000     0.11833   117.81728   180.00000     0.11865
     5.10000   122.21383   180.00000     0.11975   116.94561   180.00000     0.11983
     5.20000   121.28349   180.00000     0.12123   116.04986   180.00000     0.12104
     5.30000   120.37090   180.00000     0.12270   115.17855   180.00000     0.12222
     5.40000   119.47473   180.00000     0.12414   114.33032   180.00000     0.12336
     5.50000   118.54704   180.00000     0.12563   113.46029   180.00000     0.12452
     5.60000   117.58913   180.00000     0.12717   112.57062   180.00000     0.12570
     5.70000   116.64713   180.00000     0.12867   111.70446   180.00000     0.12684
     5.80000   115.67539   180.00000     0.13021   110.82016   180.00000     0.12798
     5.90000   114.67479   180.00000     0.13178   109.91936   180.00000     0.12913
     6.00000   113.64602   180.00000     0.13336   109.00352   180.00000     0.13027
     6.10000   112.63180   180.00000     0.13489   108.11083   180.00000     0.13134
     6.20000   111.54756   180.00000     0.13648   107.16736   180.00000     0.13245
     6.30000   110.39546   180.00000     0.13811   106.17678   180.00000     0.13358
     6.40000   109.21767   180.00000     0.13972   105.17651   180.00000     0.13466
     6.50000   108.01405   180.00000     0.14128   104.16668   180.00000     0.13570
     6.60000   106.70574   180.00000     0.14288   103.08220   180.00000     0.13675
     6.70000   105.29519   180.00000     0.14449   101.92739   180.00000     0.13779
     6.80000   103.74603   180.00000     0.14610   100.67480   180.00000     0.13882
     6.90000   102.02305   180.00000     0.14770    99.29891   180.00000     0.13982
     7.00000   100.05438   180.00000     0.14927    97.74595   180.00000     0.14079
     7.10000    97.58512   180.00000     0.15084    95.82123   180.00000     0.14175
     7.20000    93.81931   180.00000     0.15237    92.92039   180.00000     0.14268
     7.30000    90.00000   180.00000     0.15280    90.00000   180.00000     0.14291
     7.40000    90.00000   180.00000     0.15267    90.00000   180.00000     0.14279
     7.50000    90.00000   180.00000     0.15254    90.00000   180.00000     0.14266
     7.60000    90.00000   180.00000     0.15242    90.00000   180.00000     0.14254
     7.70000    90.00000   180.00000     0.15229    90.00000   180.00000     0.14241
     7.80000    90.00000   180.00000     0.15216    90.00000   180.00000     0.14228
     7.90000    90.00000   180.00000     0.15203    90.00000   180.00000     0.14216
     8.00000    90.00000   180.00000     0.15190    90.00000   180.00000     0.14203
     8.10000    90.00000   180.00000     0.15177    90.00000   180.00000     0.14191
     8.20000    90.00000   180.00000     0.15164    90.00000   180.00000     0.14178
     8.30000    90.00000   180.00000     0.15151    90.00000   180.00000     0.14165
     8.40000    90.00000   180.00000     0.15138    90.00000   180.00000     0.14153
     8.50000    90.00000   180.00000     0.15125    90.00000   180.00000     0.14140
     8.60000    90.00000   180.00000     0.15112    90.00000   180.00000     0.14128
     8.70000    90.00000   180.00000     0.15099    90.00000   180.00000     0.14115
     8.80000    90.00000   180.00000     0.15086    90.00000   180.00000     0.14103
     8.90000    90.00000   180.00000     0.15073    90.00000   180.00000     0.14090
     9.00000    90.00000   180.00000     0.15060    90.00000   180.00000     0.14077
     9.10000    90.00000   180.00000     0.15047    90.00000   180.00000     0.14065
     9.20000    90.00000   180.00000     0.15035    90.00000   180.00000     0.14052
     9.30000    90.00000   180.00000     0.15022    90.00000   180.00000     0.14040
     9.40000    90.00000   180.00000     0.15009    90.00000   180.00000     0.14027
     9.50000    90.00000   180.00000     0.14996    90.00000   180.00000     0.14015
     9.60000    90.00000   180.00000     0.14983    90.00000   180.00000     0.14002
     9.70000    90.00000   180.00000     0.14970    90.00000   180.00000     0.13989
     9.80000    90.00000   180.00000     0.14957    90.00000   180.00000     0.13977
     9.90000    90.00000   180.00000     0.14944    90.00000   180.00000     0.13964
    10.00000    90.00000   180.00000     0.14931    90.00000   180.00000     0.13952
    10.10000    90.00000   180.00000     0.14918    90.00000   180.00000     0.13939
    10.20000    90.00000   180.00000     0.14905    90.00000   180.00000     0.13927
    10.30000    90.00000   180.00000     0.14892    90.00000   180.00000     0.13914
    10.40000    90.00000   180.00000     0.14880    90.00000   180.00000     0.13902
    10.50000    90.00000   180.00000     0.14867    90.00000   180.00000     0.13889
    10.60000    90.00000   180.00000     0.14854    90.00000   180.00000     0.13877
    10.70000    90.00000   180.00000     0.14841    90.00000   180.00000     0.13864
    10.80000    90.00000   180.00000     0.14828    90.00000   180.00000     0.13851
    10.90000    90.00000   180.00000     0.14815    90.00000   180.00000     0.13839
    11.00000    90.00000   180.00000     0.14802    90.00000   180.00000     0.13826
    11.10000    90.00000   180.00000     0.14789    90.00000   180.00000     0.13814
    11.20000    90.00000   180.00000     0.14776    90.00000   180.00000     0.13801
    11.30000    90.00000   180.00000     0.14763    90.00000   180.00000     0.13789
    11.40000    90.00000   180.00000     0.14750    90.00000   180.00000     0.13776
    11.50000    90.00000   180.00000     0.14738    90.00000   180.00000     0.13764
    11.60000    90.00000   180.00000     0.14725    90.00000   180.00000     0.13751
    11.70000    90.00000   180.00000     0.14712    90.00000   180.00000     0.13739
    11.80000    90.00000   180.00000     0.14699    90.00000   180.00000     0.13726
    11.90000    90.00000   180.00000     0.14686    90.00000   180.00000     0.13713
    12.00000    90.00000   180.00000     0.14673    90.00000   180.00000     0.13701
    12.10000    90.00000   180.00000     0.14660    90.00000   180.00000     0.13688
    12.20000    90.00000   180.00000     0.14647    90.00000   180.00000     0.13676
    12.30000    90.00000   180.00000     0.14634    90.00000   180.00000     0.13663
    12.40000    90.00000   180.00000     0.14622    90.00000   180.00000     0.13651
    12.50000    90.00000   180.00000     0.14609    90.00000   180.00000     0.13638
    12.60000    90.00000   180.00000     0.14596    90.00000   180.00000     0.13626
    12.70000    90.00000   180.00000     0.14583    90.00000   180.00000     0.13613
    12.80000    90.00000   180.00000     0.14570    90.00000   180.00000     0.13601
    12.90000    90.00000   180.00000     0.14557    90.00000   180.00000     0.13588
    13.00000    90.00000   180.00000     0.14544    90.00000   180.00000     0.13576
    13.10000    90.00000   180.00000     0.14531    90.00000   180.00000     0.13563
    13.20000    90.00000   180.00000     0.14519    90.00000   180.00000     0.13551
    13.30000    90.00000   180.00000     0.14506    90.00000   180.00000     0.13538
    13.40000    90.00000   180.00000     0.14493    90.00000   180.00000     0.13526
    13.50000    90.00000   180.00000     0.14480    90.00000   180.00000     0.13513
    13.60000    90.00000   180.00000     0.14467    90.00000   180.00000     0.13501
    13.70000    90.00000   180.00000     0.14454    90.00000   180.00000     0.13488
    13.80000    90.00000   180.00000     0.14441    90.00000   180.00000     0.13475
    13.90000    90.00000   180.00000     0.14428    90.00000   180.00000     0.13463
    14.00000    90.00000   180.00000     0.14416    90.00000   180.00000     0.13450
    14.10000    90.00000   180.00000     0.14403    90.00000   180.00000     0.13438
    14.20000    90.00000   180.00000     0.14390    90.00000   180.00000     0.13425
    14.30000    90.00000   180.00000     0.14377    90.00000   180.00000     0.13413
    14.40000    90.00000   180.00000     0.14364    90.00000   180.00000     0.13400
    14.50000    90.00000   180.00000     0.14351    90.00000   180.00000     0.13388
    14.60000    90.00000   180.00000     0.14338    90.00000   180.00000     0.13375
    14.70000    90.00000   180.00000     0.14326    90.00000   180.00000     0.13363
    14.80000    90.00000   180.00000     0.14313    90.00000   180.00000     0.13350
    14.90000    90.00000   180.00000     0.14300    90.00000   180.00000     0.13338
    15.00000    90.00000   180.00000     0.14287    90.00000   180.00000     0.13325
    15.10000    90.00000   180.00000     0.14274    90.00000   180.00000     0.13313
    15.20000    90.00000   180.00000     0.14261    90.00000   180.00000     0.13300
    15.30000    90.00000   180.00000     0.14248    90.00000   180.00000     0.13288
    15.40000    90.00000   180.00000     0.14236    90.00000   180.00000     0.13275
    15.50000    90.00000   180.00000     0.14223    90.00000   180.00000     0.13263
    15.60000    90.00000   180.00000     0.14210    90.00000   180.00000     0.13250
    15.70000    90.00000   180.00000     0.14197    90.00000   180.00000     0.13238
    15.80000    90.00000   180.00000     0.14184    90.00000   180.00000     0.13225
    15.90000    90.00000   180.00000     0.14171    90.00000   180.00000     0.13213
    16.00000    90.00000   180.00000     0.14159    90.00000   180.00000     0.13200
    16.10000    90.00000   180.00000     0.14146    90.00000   180.00000     0.13188
    16.20000    90.00000   180.00000     0.14133    90.00000   180.00000     0.13175
    16.30000    90.00000   180.00000     0.14120    90.00000   180.00000     0.13163
    16.40000    90.00000   180.00000     0.14107    90.00000   180.00000     0.13150
    16.50000    90.00000   180.00000     0.14094    90.00000   180.00000     0.13138
    16.60000    90.00000   180.00000     0.14082    90.00000   180.00000     0.13125
    16.70000    90.00000   180.00000     0.14069    90.00000   180.00000     0.13113
    16.80000    90.00000   180.00000     0.14056    90.00000   180.00000     0.13101
    16.90000    90.00000   180.00000     0.14043    90.00000   180.00000     0.13088
    17.00000    90.00000   180.00000     0.14030    90.00000   180.00000     0.13076
    17.10000    90.00000   180.00000     0.14018    90.00000   180.00000     0.13063
    17.20000    90.00000   180.00000     0.14005    90.00000   180.00000     0.13051
    17.30000    90.00000   180.00000     0.13992    90.00000   180.00000     0.13038
    17.40000    90.00000   180.00000     0.13979    90.00000   180.00000     0.13026
    17.50000    90.00000   180.00000     0.13966    90.00000   180.00000     0.13013
    17.60000    90.00000   180.00000     0.13953    90.00000   180.00000     0.13001
    17.70000    90.00000   180.00000     0.13941    90.00000   180.00000     0.12988
    17.80000    90.00000   180.00000     0.13928    90.00000   180.00000     0.12976
    17.90000    90.00000   180.00000     0.13915    90.00000   180.00000     0.12963
    18.00000    90.00000   180.00000     0.13902    90.00000   180.00000     0.12951
    18.10000    90.00000   180.00000     0.13889    90.00000   180.00000     0.12938
    18.20000    90.00000   180.00000     0.13877    90.00000   180.00000     0.12926
    18.30000    90.00000   180.00000     0.13864    90.00000   180.00000     0.12913
    18.40000    90.00000   180.00000     0.13851    90.00000   180.00000     0.12901
    18.50000    90.00000   180.00000     0.13838    90.00000   180.00000     0.12889
    18.60000    90.00000   180.00000     0.13825    90.00000   180.00000     0.12876
    18.70000    90.00000   180.00000     0.13813    90.00000   180.00000     0.12864
    18.80000    90.00000   180.00000     0.13800    90.00000   180.00000     0.12851
    18.90000    90.00000   180.00000     0.13787    90.00000   180.00000     0.12839
    19.00000    90.00000   180.00000     0.13774    90.00000   180.00000     0.12826
    19.10000    90.00000   180.00000     0.13761    90.00000   180.00000     0.12814
    19.20000    90.00000   180.00000     0.13749    90.00000   180.00000     0.12801
    19.30000    90.00000   180.00000     0.13736    90.00000   180.00000     0.12789
    19.40000    90.00000   180.00000     0.13723    90.00000   180.00000     0.12776
    19.50000    90.00000   180.00000     0.13710    90.00000   180.00000     0.12764
    19.60000    90.00000   180.00000     0.13697    90.00000   180.00000     0.12751
    19.70000    90.00000   180.00000     0.13685    90.00000   180.00000     0.12739
    19.80000    90.00000   180.00000     0.13672    90.00000   180.00000     0.12727
    19.90000    90.00000   180.00000     0.13659    90.00000   180.00000     0.12714
    20.00000    90.00000   180.00000     0.13646    90.00000   180.00000     0.12702
    20.10000    90.00000   180.00000     0.13634    90.00000   180.00000     0.12689
    20.20000    90.00000   180.00000     0.13621    90.00000   180.00000     0.12677
    20.30000    90.00000   180.00000     0.13608    90.00000   180.00000     0.12664
    20.40000    90.00000   180.00000     0.13595    90.00000   180.00000     0.12652
    20.50000    90.00000   180.00000     0.13582    90.00000   180.00000     0.12639
    20.60000    90.00000   180.00000     0.13570    90.00000   180.00000     0.12627
    20.70000    90.00000   180.00000     0.13557    90.00000   180.00000     0.12615
    20.80000    90.00000   180.00000     0.13544    90.00000   180.00000     0.12602
    20.90000    90.00000   180.00000     0.13531    90.00000   180.00000     0.12590
    21.00000    90.00000   180.00000     0.13519    90.00000   180.00000     0.12577
    21.10000    90.00000   180.00000     0.13506    90.00000   180.00000     0.12565
    21.20000    90.00000   180.00000     0.13493    90.00000   180.00000     0.12552
    21.30000    90.00000   180.00000     0.13480    90.00000   180.00000     0.12540
    21.40000    90.00000   180.00000     0.13467    90.00000   180.00000     0.12528
    21.50000    90.00000   180.00000     0.13455    90.00000   180.00000     0.12515
    21.60000    90.00000   180.00000     0.13442    90.00000   180.00000     0.12503
    21.70000    90.00000   180.00000     0.13429    90.00000   180.00000     0.12490
    21.80000    90.00000   180.00000     0.13416    90.00000   180.00000     0.12478
    21.90000    90.00000   180.00000     0.13404    90.00000   180.00000     0.12465
    22.00000    90.00000   180.00000     0.13391    90.00000   180.00000     0.12453
    22.10000    90.00000   180.00000     0.13378    90.00000   180.00000     0.12441
    22.20000    90.00000   180.00000     0.13365    90.00000   180.00000     0.12428
    22.30000    90.00000   180.00000     0.13353    90.00000   180.00000     0.12416
    22.40000    90.00000   180.00000     0.13340    90.00000   180.00000     0.12403
    22.50000    90.00000   180.00000     0.13327    90.00000   180.00000     0.12391
    22.60000    90.00000   180.00000     0.13314    90.00000   180.00000     0.12378
    22.70000    90.00000   180.00000     0.13302    90.00000   180.00000     0.12366
    22.80000    90.00000   180.00000     0.13289    90.00000   180.00000     0.12354
    22.90000    90.00000   180.00000     0.13276    90.00000   180.00000     0.12341
    23.00000    90.00000   180.00000     0.13263    90.00000   180.00000     0.12329
    23.10000    90.00000   180.00000     0.13251    90.00000   180.00000     0.12316
    23.20000    90.00000   180.00000     0.13238    90.00000   180.00000     0.12304
    23.30000    90.00000   180.00000     0.13225    90.00000   180.00000     0.12292
