 # applied field (T), magnetization (2 f.u.), magnetization (T)
  0.000000000000000E+000  9.065023944614615E-015  3.119224070973921E-016
  0.100000000000000       0.313842221687842       1.079913542818853E-002
  0.200000000000000       0.627673948350210       2.159790972841661E-002
  0.300000000000000       0.993691280512553       3.419236154509049E-002
  0.400000000000000        1.30746427487664       4.498911489976280E-002
  0.500000000000000        1.62119354483481       5.578436372206698E-002
  0.600000000000000        1.93486859752350       6.657774695843269E-002
  0.700000000000000        2.30064794376375       7.916400981254806E-002
  0.800000000000000        2.61416955480394       8.995211320755429E-002
  0.900000000000000        2.92760373153729       0.100737208036933     
   1.00000000000000        3.24093998670442       0.111518933439950     
   1.10000000000000        3.55416783488887       0.122296928619287     
   1.20000000000000        3.91935709682153       0.134862887002202     
   1.30000000000000        4.23231413619465       0.145631563801708     
   1.40000000000000        4.54512958172220       0.156395368436131     
   1.50000000000000        4.90979588913177       0.168943332246208     
   1.60000000000000        5.22226865651379       0.179695345517181     
   1.70000000000000        5.53456666944634       0.190441345585226     
   1.80000000000000        5.84667946164608       0.201180972311382     
   1.90000000000000        6.21047107850873       0.213698838508643     
   2.00000000000000        6.52214672377402       0.224423423253125     
   2.10000000000000        6.83360403056402       0.235140495092712     
   2.20000000000000        7.19658925232367       0.247630613685208     
   2.30000000000000        7.50753770636583       0.258330176186161     
   2.40000000000000        7.86990080701930       0.270798887939124     
   2.50000000000000        8.18029139873969       0.281479254709399     
   2.60000000000000        8.49040796474985       0.292150192408150     
   2.70000000000000        8.85175900370563       0.304584079683780     
   2.80000000000000        9.16124615579301       0.315233359601255     
   2.90000000000000        9.52183451822243       0.327641003603907     
   3.00000000000000        9.83064336100997       0.338266943277511     
   3.10000000000000        10.1904120456786       0.350646382626566     
   3.20000000000000        10.5497158257314       0.363009824867647     
   3.30000000000000        10.8573858007418       0.373596576737603     
   3.40000000000000        11.2157823316514       0.385928801042767     
   3.50000000000000        11.5226501135371       0.396487949895685     
   3.60000000000000        11.8800825521642       0.408787000324280     
   3.70000000000000        12.2369724011944       0.421067380548124     
   3.80000000000000        12.5933032129682       0.433328524612449     
   3.90000000000000        12.8983494395718       0.443824994766252     
   4.00000000000000        13.2535983185214       0.456048910126834     
   4.10000000000000        13.6082412211499       0.468251974180911     
   4.20000000000000        13.9622617406978       0.480433622381062     
   4.30000000000000        14.3156434811071       0.492593290548097     
   4.40000000000000        14.6683700570218       0.504730414871075     
   4.50000000000000        15.0204250937718       0.516844431906744     
   4.60000000000000        15.3717922273390       0.528934778578394     
   4.70000000000000        15.7224551043088       0.541000892174167     
   4.80000000000000        16.1222533879959       0.554757727651162     
   4.90000000000000        16.4713522842093       0.566770025543284     
   5.00000000000000        16.8196956002040       0.578756324342405     
   5.10000000000000        17.1672670257087       0.590716062821209     
   5.20000000000000        17.5634501492484       0.604348502658204     
   5.30000000000000        17.9093128270237       0.616249444082735     
   5.40000000000000        18.3035007626030       0.629813230617207     
   5.50000000000000        18.6965898025053       0.643339204765659     
   5.60000000000000        19.0396873838014       0.655145000765870     
   5.70000000000000        19.4306504506866       0.668597821371099     
   5.80000000000000        19.8204449461409       0.682010432086557     
   5.90000000000000        20.2090466678952       0.695382000125693     
   6.00000000000000        20.5964314290459       0.708711693230667     
   6.10000000000000        21.0306904580542       0.723654303692553     
   6.20000000000000        21.4154091696587       0.736892259522818     
   6.30000000000000        21.7988354385932       0.750085743123209     
   6.40000000000000        22.2285517399150       0.764872040864529     
   6.50000000000000        22.6565679946642       0.779599840953517     
   6.60000000000000        23.0828499191971       0.794267963709156     
   6.70000000000000        23.5073632520953       0.808875230215190     
   6.80000000000000        23.9300737540225       0.823420462315188     
   6.90000000000000        24.3975411080226       0.839505752678462     
   7.00000000000000        24.8163335844797       0.853916167711994     
   7.10000000000000        25.2793635777875       0.869848770974080     
   7.20000000000000        25.7399903792788       0.885698681749008     
   7.30000000000000        26.2438001359618       0.903034493875250     
   7.40000000000000        26.7445839632827       0.920266185463464     
   7.50000000000000        27.2422797575073       0.937391619558870     
   7.60000000000000        27.7368254800762       0.954408661449318     
   7.70000000000000        28.2726220236241       0.972845121032772     
   7.80000000000000        28.8045164425718       0.991147310689797     
   7.90000000000000        29.3762008592520        1.01081865192844     
   8.00000000000000        29.9864837161379        1.03181814392021     
   8.10000000000000        30.5911032892210        1.05262276548178     
   8.20000000000000        31.2749375887832        1.07615312150493     
   8.30000000000000        31.9510237845192        1.09941686960618     
   8.40000000000000        32.7020732722383        1.12526006268431     
   8.50000000000000        33.5244275763536        1.15355681463928     
   8.60000000000000        52.7379536407893        1.81468350723976     
   8.70000000000000        52.7379970829226        1.81468500205929     
   8.80000000000000        52.7380405303096        1.81468649705959     
   8.90000000000000        52.7380839829513        1.81468799224070     
   9.00000000000000        52.7381274408487        1.81468948760266     
   9.10000000000000        52.7381709040028        1.81469098314550     
   9.20000000000000        52.7382143724144        1.81469247886925     
   9.30000000000000        52.7382578460846        1.81469397477394     
   9.40000000000000        52.7383013250143        1.81469547085961     
   9.50000000000000        52.7383448092045        1.81469696712629     
   9.60000000000000        52.7383882986562        1.81469846357401     
   9.70000000000000        52.7384317933704        1.81469996020282     
   9.80000000000000        52.7384752933479        1.81470145701273     
   9.90000000000000        52.7385187985898        1.81470295400378     
   10.0000000000000        52.7385623090970        1.81470445117602     
   10.1000000000000        52.7386058248705        1.81470594852946     
   10.2000000000000        52.7386493459113        1.81470744606415     
   10.3000000000000        52.7386928722203        1.81470894378011     
   10.4000000000000        52.7387364037986        1.81471044167739     
   10.5000000000000        52.7387799406469        1.81471193975601     
   10.6000000000000        52.7388234827665        1.81471343801600     
   10.7000000000000        52.7388670301581        1.81471493645741     
   10.8000000000000        52.7389105828228        1.81471643508026     
   10.9000000000000        52.7389541407616        1.81471793388458     
   11.0000000000000        52.7389977039753        1.81471943287042     
   11.1000000000000        52.7390412724651        1.81472093203780     
   11.2000000000000        52.7390848462317        1.81472243138676     
   11.3000000000000        52.7391284252763        1.81472393091732     
   11.4000000000000        52.7391720095998        1.81472543062953     
   11.5000000000000        52.7392155992032        1.81472693052342     
   11.6000000000000        52.7392591940873        1.81472843059902     
   11.7000000000000        52.7393027942533        1.81472993085636     
   11.8000000000000        52.7393463997020        1.81473143129547     
   11.9000000000000        52.7393900104344        1.81473293191640     
   12.0000000000000        52.7394336264516        1.81473443271917     
   12.1000000000000        52.7394772477544        1.81473593370382     
   12.2000000000000        52.7395208743439        1.81473743487038     
   12.3000000000000        52.7395645062209        1.81473893621888     
   12.4000000000000        52.7396081433866        1.81474043774936     
   12.5000000000000        52.7396517858418        1.81474193946185     
   12.6000000000000        52.7396954335875        1.81474344135639     
   12.7000000000000        52.7397390866248        1.81474494343300     
   12.8000000000000        52.7397827449544        1.81474644569172     
   12.9000000000000        52.7398264085776        1.81474794813258     
   13.0000000000000        52.7398700774951        1.81474945075563     
   13.1000000000000        52.7399137517080        1.81475095356088     
   13.2000000000000        52.7399574312173        1.81475245654838     
   13.3000000000000        52.7400011160238        1.81475395971816     
   13.4000000000000        52.7400448061287        1.81475546307025     
   13.5000000000000        52.7400885015329        1.81475696660468     
   13.6000000000000        52.7401322022372        1.81475847032149     
   13.7000000000000        52.7401759082428        1.81475997422072     
   13.8000000000000        52.7402196195506        1.81476147830238     
   13.9000000000000        52.7402633361615        1.81476298256653     
   14.0000000000000        52.7403070580766        1.81476448701319     
   14.1000000000000        52.7403507852967        1.81476599164239     
   14.2000000000000        52.7403945178230        1.81476749645418     
   14.3000000000000        52.7404382556562        1.81476900144857     
   14.4000000000000        52.7404819987975        1.81477050662562     
   14.5000000000000        52.7405257472478        1.81477201198534     
   14.6000000000000        52.7405695010081        1.81477351752777     
   14.7000000000000        52.7406132600793        1.81477502325295     
   14.8000000000000        52.7406570244624        1.81477652916091     
   14.9000000000000        52.7407007941584        1.81477803525169     
   15.0000000000000        52.7407445691682        1.81477954152531     
   15.1000000000000        52.7407883494929        1.81478104798181     
   15.2000000000000        52.7408321351334        1.81478255462123     
   15.3000000000000        52.7408759260907        1.81478406144359     
   15.4000000000000        52.7409197223658        1.81478556844894     
   15.5000000000000        52.7409635239596        1.81478707563730     
   15.6000000000000        52.7410073308731        1.81478858300870     
   15.7000000000000        52.7410511431072        1.81479009056319     
   15.8000000000000        52.7410949606631        1.81479159830080     
   15.9000000000000        52.7411387835416        1.81479310622155     
   16.0000000000000        52.7411826117436        1.81479461432549     
   16.1000000000000        52.7412264452703        1.81479612261264     
   16.2000000000000        52.7412702841226        1.81479763108304     
   16.3000000000000        52.7413141283014        1.81479913973673     
   16.4000000000000        52.7413579778076        1.81480064857373     
   16.5000000000000        52.7414018326424        1.81480215759408     
   16.6000000000000        52.7414456928067        1.81480366679782     
   16.7000000000000        52.7414895583014        1.81480517618497     
   16.8000000000000        52.7415334291275        1.81480668575558     
   16.9000000000000        52.7415773052861        1.81480819550967     
   17.0000000000000        52.7416211867779        1.81480970544728     
   17.1000000000000        52.7416650736042        1.81481121556844     
   17.2000000000000        52.7417089657658        1.81481272587319     
   17.3000000000000        52.7417528632637        1.81481423636155     
   17.4000000000000        52.7417967660988        1.81481574703357     
   17.5000000000000        52.7418406742723        1.81481725788928     
   17.6000000000000        52.7418845877850        1.81481876892870     
   17.7000000000000        52.7419285066379        1.81482028015189     
   17.8000000000000        52.7419724308320        1.81482179155885     
   17.9000000000000        52.7420163603682        1.81482330314964     
   18.0000000000000        52.7420602952477        1.81482481492429     
   18.1000000000000        52.7421042354712        1.81482632688282     
   18.2000000000000        52.7421481810399        1.81482783902527     
   18.3000000000000        52.7421921319547        1.81482935135169     
   18.4000000000000        52.7422360882165        1.81483086386209     
   18.5000000000000        52.7422800498264        1.81483237655651     
   18.6000000000000        52.7423240167853        1.81483388943499     
   18.7000000000000        52.7423679890943        1.81483540249756     
   18.8000000000000        52.7424119667542        1.81483691574426     
   18.9000000000000        52.7424559497661        1.81483842917512     
   19.0000000000000        52.7424999381309        1.81483994279016     
   19.1000000000000        52.7425439318497        1.81484145658943     
   19.2000000000000        52.7425879309233        1.81484297057297     
   19.3000000000000        52.7426319353529        1.81484448474079     
   19.4000000000000        52.7426759451393        1.81484599909294     
   19.5000000000000        52.7427199602836        1.81484751362946     
   19.6000000000000        52.7427639807867        1.81484902835036     
   19.7000000000000        52.7428080066497        1.81485054325570     
   19.8000000000000        52.7428520378734        1.81485205834550     
   19.9000000000000        52.7428960744589        1.81485357361979     
   20.0000000000000        52.7429401164071        1.81485508907861     
   20.1000000000000        52.7429841637191        1.81485660472200     
   20.2000000000000        52.7430282163958        1.81485812054998     
   20.3000000000000        52.7430722744383        1.81485963656260     
   20.4000000000000        52.7431163378474        1.81486115275987     
   20.5000000000000        52.7431604066241        1.81486266914185     
   20.6000000000000        52.7432044807695        1.81486418570856     
   20.7000000000000        52.7432485602846        1.81486570246003     
   20.8000000000000        52.7432926451703        1.81486721939631     
   20.9000000000000        52.7433367354276        1.81486873651742     
   21.0000000000000        52.7433808310574        1.81487025382339     
   21.1000000000000        52.7434249320608        1.81487177131427     
   21.2000000000000        52.7434690384388        1.81487328899008     
   21.3000000000000        52.7435131501923        1.81487480685087     
   21.4000000000000        52.7435572673223        1.81487632489665     
   21.5000000000000        52.7436013898298        1.81487784312747     
   21.6000000000000        52.7436455177158        1.81487936154337     
   21.7000000000000        52.7436896509813        1.81488088014436     
   21.8000000000000        52.7437337896272        1.81488239893050     
   21.9000000000000        52.7437779336545        1.81488391790180     
   22.0000000000000        52.7438220830643        1.81488543705832     
   22.1000000000000        52.7438662378574        1.81488695640007     
   22.2000000000000        52.7439103980350        1.81488847592710     
   22.3000000000000        52.7439545635980        1.81488999563943     
   22.4000000000000        52.7439987345473        1.81489151553711     
   22.5000000000000        52.7440429108839        1.81489303562016     
   22.6000000000000        52.7440870926089        1.81489455588862     
   22.7000000000000        52.7441312797232        1.81489607634253     
   22.8000000000000        52.7441754722278        1.81489759698191     
   22.9000000000000        52.7442196701237        1.81489911780680     
   23.0000000000000        52.7442638734118        1.81490063881724     
   23.1000000000000        52.7443080820932        1.81490216001326     
   23.2000000000000        52.7443522961689        1.81490368139489     
   23.3000000000000        52.7443965156398        1.81490520296216     
   23.4000000000000        52.7444407405069        1.81490672471512     
   23.5000000000000        52.7444849707713        1.81490824665380     
   23.6000000000000        52.7445292064338        1.81490976877822     
   23.7000000000000        52.7445734474955        1.81491129108842     
   23.8000000000000        52.7446176939574        1.81491281358445     
   23.9000000000000        52.7446619458204        1.81491433626632     
   24.0000000000000        52.7447062030856        1.81491585913408     
   24.1000000000000        52.7447504657539        1.81491738218775     
   24.2000000000000        52.7447947338263        1.81491890542738     
   24.3000000000000        52.7448390073039        1.81492042885300     
   24.4000000000000        52.7448832861875        1.81492195246463     
   24.5000000000000        52.7449275704782        1.81492347626232     
   24.6000000000000        52.7449718601770        1.81492500024610     
   24.7000000000000        52.7450161552849        1.81492652441601     
   24.8000000000000        52.7450604558028        1.81492804877207     
   24.9000000000000        52.7451047617317        1.81492957331432     
   25.0000000000000        52.7451490730727        1.81493109804279     
   25.1000000000000        52.7451933898267        1.81493262295753     
   25.2000000000000        52.7452377119947        1.81493414805856     
   25.3000000000000        52.7452820395777        1.81493567334591     
   25.4000000000000        52.7453263725767        1.81493719881963     
   25.5000000000000        52.7453707109927        1.81493872447974     
   25.6000000000000        52.7454150548266        1.81494025032628     
   25.7000000000000        52.7454594040795        1.81494177635928     
   25.8000000000000        52.7455037587524        1.81494330257878     
   25.9000000000000        52.7455481188461        1.81494482898481     
   26.0000000000000        52.7455924843618        1.81494635557741     
   26.1000000000000        52.7456368553005        1.81494788235661     
   26.2000000000000        52.7456812316630        1.81494940932244     
   26.3000000000000        52.7457256134505        1.81495093647494     
   26.4000000000000        52.7457700006638        1.81495246381414     
   26.5000000000000        52.7458143933041        1.81495399134008     
   26.6000000000000        52.7458587913722        1.81495551905279     
   26.7000000000000        52.7459031948692        1.81495704695230     
   26.8000000000000        52.7459476037960        1.81495857503865     
   26.9000000000000        52.7459920181537        1.81496010331187     
   27.0000000000000        52.7460364379432        1.81496163177200     
   27.1000000000000        52.7460808631656        1.81496316041907     
   27.2000000000000        52.7461252938219        1.81496468925312     
