 # applied field (T), magnetization (2 f.u.), magnetization (T)
 # T=0 1st order approx.
 # K1(0) (K, MJ/m^3)   138.472035124768        11.4251287322701     
 # K2(0) (K, MJ/m^3)  -32.4964579498108       -2.68123607113060     
 # from A20
 # K1(0) from A20 (K, MJ/m^3)   202.666452078539        8.36085893669227     
  0.000000000000000E+000  2.619952580831841E-015  9.123399033654379E-017
  0.100000000000000       0.300436988417863       1.046204633572143E-002
  0.200000000000000       0.600859619029801       2.092359269295598E-002
  0.300000000000000       0.901253534586474       3.138413911259864E-002
  0.400000000000000        1.20160437895171       4.184318567430794E-002
  0.500000000000000        1.50189779765899       5.230023251588453E-002
  0.600000000000000        1.84493251990771       6.424564968248139E-002
  0.700000000000000        2.14505457613012       7.469672920869364E-002
  0.800000000000000        2.44507411242780       8.514423870776514E-002
  0.900000000000000        2.74497678717870       9.558767876477545E-002
   1.00000000000000        3.04474826329129       0.106026550122571     
   1.10000000000000        3.34437420876057       0.116460353701124     
   1.20000000000000        3.64384029722386       0.126888590616888     
   1.30000000000000        3.94313220851636       0.137310762202145     
   1.40000000000000        4.28487966355994       0.149211353166690     
   1.50000000000000        4.58375018901090       0.159618850932246     
   1.60000000000000        4.88240158029502       0.170018717840433     
   1.70000000000000        5.18081954883898       0.180410456323633     
   1.80000000000000        5.47898981512172       0.190793569129456     
   1.90000000000000        5.81936564845492       0.202646396434924     
   2.00000000000000        6.11695713907753       0.213009354672542     
   2.10000000000000        6.41425611674783       0.223362126800664     
   2.20000000000000        6.71124834534941       0.233704217078368     
   2.30000000000000        7.05020584580873       0.245507654112936     
   2.40000000000000        7.34649293782031       0.255825189585599     
   2.50000000000000        7.64242862141450       0.266130488045886     
   2.60000000000000        7.93799871337784       0.276423055595102     
   2.70000000000000        8.27525921901422       0.288167398579492     
   2.80000000000000        8.56999828307532       0.298431027440215     
   2.90000000000000        8.90627209679481       0.310141011084872     
   3.00000000000000        9.20011523151784       0.320373441209722     
   3.10000000000000        9.49351806039918       0.330590538668171     
   3.20000000000000        9.82821074594588       0.342245463059659     
   3.30000000000000        10.1206227463720       0.352428057132677     
   3.40000000000000        10.4541463742756       0.364042271705791     
   3.50000000000000        10.7455030600126       0.374188116804477     
   3.60000000000000        11.0777840500133       0.385759059291195     
   3.70000000000000        11.4093723438239       0.397305880181987     
   3.80000000000000        11.6989861171682       0.407391032253797     
   3.90000000000000        12.0292193888403       0.418890667528483     
   4.00000000000000        12.3176153551708       0.428933412194090     
   4.10000000000000        12.6464206127070       0.440383320069577     
   4.20000000000000        12.9744345665305       0.451805672562643     
   4.30000000000000        13.3016365705200       0.463199750718288     
   4.40000000000000        13.6280060199632       0.474564837023470     
   4.50000000000000        13.9129380047912       0.484486956278817     
   4.60000000000000        14.2376908998159       0.495795749691040     
   4.70000000000000        14.5615522392047       0.507073496671791     
   4.80000000000000        14.8845015889130       0.518319485651149     
   4.90000000000000        15.2065185615768       0.529533006684757     
   5.00000000000000        15.5675906968587       0.542106536428050     
   5.10000000000000        15.8875590377323       0.553248718440364     
   5.20000000000000        16.2065316068175       0.564356224926720     
   5.30000000000000        16.5244882208038       0.575428353048467     
   5.40000000000000        16.8414087486522       0.586464401787178     
   5.50000000000000        17.1966245052741       0.598833996238670     
   5.60000000000000        17.5112769110259       0.609791062696956     
   5.70000000000000        17.8638905966528       0.622070045844352     
   5.80000000000000        18.1761847593156       0.632944991760167     
   5.90000000000000        18.5260953075314       0.645129844191519     
   6.00000000000000        18.8745341713095       0.657263448503057     
   6.10000000000000        19.2214733010313       0.669344827929535     
   6.20000000000000        19.5286310238528       0.680040908813101     
   6.30000000000000        19.8726609648919       0.692020982248736     
   6.40000000000000        20.2530132833537       0.705265901260211     
   6.50000000000000        20.5936749865198       0.717128683343398     
   6.60000000000000        20.9326982298281       0.728934409725679     
   6.70000000000000        21.2700555869558       0.740682125346689     
   6.80000000000000        21.6428621965990       0.753664281920986     
   6.90000000000000        21.9766133156143       0.765286418363388     
   7.00000000000000        22.3453462332071       0.778126717720922     
   7.10000000000000        22.7118815384037       0.790890490140685     
   7.20000000000000        23.0761824569379       0.803576455041084     
   7.30000000000000        23.4382124009951       0.816183338333289     
   7.40000000000000        23.7979349728788       0.828709872548903     
   7.50000000000000        24.1553139687033       0.841154796968558     
   7.60000000000000        24.5456396496310       0.854747016027177     
   7.70000000000000        24.9330388827555       0.868237328084676     
   7.80000000000000        25.2826779173657       0.880412725661825     
   7.90000000000000        25.6643588924457       0.893703912169115     
   8.00000000000000        26.0772061129817       0.908080393485770     
   8.10000000000000        26.4524293301890       0.921146703014877     
   8.20000000000000        26.8581219578921       0.935274041634006     
   8.30000000000000        27.2599951131904       0.949268375667092     
   8.40000000000000        27.6579899252344       0.963127655068433     
   8.50000000000000        28.0520480120109       0.976849846814969     
   8.60000000000000        28.4744024120234       0.991557394398560     
   8.70000000000000        28.8919963224057        1.00609916857537     
   8.80000000000000        29.3362769319019        1.02157024737659     
   8.90000000000000        29.7748641050654        1.03684306498820     
   9.00000000000000        30.2076696320936        1.05191454970109     
   9.10000000000000        30.6648485704543        1.06783478396397     
   9.20000000000000        31.1151850062020        1.08351674337338     
   9.30000000000000        31.5878601375724        1.09997659790788     
   9.40000000000000        32.0525067456085        1.11615687706927     
   9.50000000000000        32.5654403839217        1.13401864408885     
   9.60000000000000        33.0402698584140        1.15055351880539     
   9.70000000000000        33.5596750062391        1.16864064167323     
   9.80000000000000        34.0933692223898        1.18722534939474     
   9.90000000000000        34.6647034316356        1.20712078571165     
   10.0000000000000        35.2193152501640        1.22643390216358     
   10.1000000000000        35.8288579562828        1.24765986394878     
   10.2000000000000        36.4390511311790        1.26890847685468     
   10.3000000000000        37.0905625573632        1.29159590547286     
   10.4000000000000        37.7939223809253        1.31608883859518     
   10.5000000000000        38.5527281870340        1.34251255408085     
   10.6000000000000        39.3964912935783        1.37189471758716     
   10.7000000000000        40.3257618333126        1.40425448625719     
   10.8000000000000        41.4309693735398        1.44274086756908     
   10.9000000000000        42.9016178850721        1.49395291356992     
   11.0000000000000        43.0623129847837        1.49954876109841     
   11.1000000000000        43.0625396643095        1.49955665470604     
   11.2000000000000        43.0627663140242        1.49956454727556     
   11.3000000000000        43.0629929339386        1.49957243880735     
   11.4000000000000        43.0632195240637        1.49958032930179     
   11.5000000000000        43.0634460844105        1.49958821875927     
   11.6000000000000        43.0636726149900        1.49959610718018     
   11.7000000000000        43.0638991158131        1.49960399456488     
   11.8000000000000        43.0641255868908        1.49961188091376     
   11.9000000000000        43.0643520282341        1.49961976622721     
   12.0000000000000        43.0645784398540        1.49962765050561     
   12.1000000000000        43.0648048217613        1.49963553374934     
   12.2000000000000        43.0650311739671        1.49964341595878     
   12.3000000000000        43.0652574964824        1.49965129713431     
   12.4000000000000        43.0654837893180        1.49965917727631     
   12.5000000000000        43.0657100524851        1.49966705638517     
   12.6000000000000        43.0659362859944        1.49967493446127     
   12.7000000000000        43.0661624898570        1.49968281150499     
   12.8000000000000        43.0663886640840        1.49969068751671     
   12.9000000000000        43.0666148086861        1.49969856249681     
   13.0000000000000        43.0668409236743        1.49970643644568     
   13.1000000000000        43.0670670090597        1.49971430936369     
   13.2000000000000        43.0672930648533        1.49972218125123     
   13.3000000000000        43.0675190910658        1.49973005210868     
   13.4000000000000        43.0677450877083        1.49973792193642     
   13.5000000000000        43.0679710547918        1.49974579073484     
   13.6000000000000        43.0681969923273        1.49975365850431     
   13.7000000000000        43.0684229003256        1.49976152524521     
   13.8000000000000        43.0686487787977        1.49976939095793     
   13.9000000000000        43.0688746277545        1.49977725564285     
   14.0000000000000        43.0691004472072        1.49978511930035     
   14.1000000000000        43.0693262371665        1.49979298193081     
   14.2000000000000        43.0695519976434        1.49980084353461     
   14.3000000000000        43.0697777286489        1.49980870411213     
   14.4000000000000        43.0700034301939        1.49981656366376     
   14.5000000000000        43.0702291022894        1.49982442218988     
   14.6000000000000        43.0704547449464        1.49983227969086     
   14.7000000000000        43.0706803581757        1.49984013616710     
   14.8000000000000        43.0709059419883        1.49984799161896     
   14.9000000000000        43.0711314963952        1.49985584604683     
   15.0000000000000        43.0713570214073        1.49986369945110     
   15.1000000000000        43.0715825170355        1.49987155183214     
   15.2000000000000        43.0718079832909        1.49987940319033     
   15.3000000000000        43.0720334201842        1.49988725352606     
   15.4000000000000        43.0722588277266        1.49989510283970     
   15.5000000000000        43.0724842059289        1.49990295113165     
   15.6000000000000        43.0727095548020        1.49991079840227     
   15.7000000000000        43.0729348743569        1.49991864465194     
   15.8000000000000        43.0731601646046        1.49992648988106     
   15.9000000000000        43.0733854255559        1.49993433409000     
   16.0000000000000        43.0736106572219        1.49994217727915     
   16.1000000000000        43.0738358596134        1.49995001944887     
   16.2000000000000        43.0740610327413        1.49995786059956     
   16.3000000000000        43.0742861766167        1.49996570073159     
   16.4000000000000        43.0745112912505        1.49997353984535     
   16.5000000000000        43.0747363766535        1.49998137794121     
   16.6000000000000        43.0749614328368        1.49998921501956     
   16.7000000000000        43.0751864598111        1.49999705108078     
   16.8000000000000        43.0754114575876        1.50000488612524     
   16.9000000000000        43.0756364261771        1.50001272015333     
   17.0000000000000        43.0758613655905        1.50002055316543     
   17.1000000000000        43.0760862758388        1.50002838516193     
   17.2000000000000        43.0763111569329        1.50003621614319     
   17.3000000000000        43.0765360088837        1.50004404610960     
   17.4000000000000        43.0767608317021        1.50005187506154     
   17.5000000000000        43.0769856253992        1.50005970299939     
   17.6000000000000        43.0772103899857        1.50006752992354     
   17.7000000000000        43.0774351254726        1.50007535583436     
   17.8000000000000        43.0776598318709        1.50008318073223     
   17.9000000000000        43.0778845091915        1.50009100461753     
   18.0000000000000        43.0781091574452        1.50009882749065     
   18.1000000000000        43.0783337766431        1.50010664935196     
   18.2000000000000        43.0785583667959        1.50011447020184     
   18.3000000000000        43.0787829279148        1.50012229004068     
   18.4000000000000        43.0790074600105        1.50013010886885     
   18.5000000000000        43.0792319630939        1.50013792668674     
   18.6000000000000        43.0794564371761        1.50014574349472     
   18.7000000000000        43.0796808822679        1.50015355929317     
   18.8000000000000        43.0799052983802        1.50016137408248     
   18.9000000000000        43.0801296855240        1.50016918786303     
   19.0000000000000        43.0803540437102        1.50017700063519     
   19.1000000000000        43.0805783729496        1.50018481239935     
   19.2000000000000        43.0808026732532        1.50019262315588     
   19.3000000000000        43.0810269446319        1.50020043290516     
   19.4000000000000        43.0812511870966        1.50020824164758     
   19.5000000000000        43.0814754006582        1.50021604938352     
   19.6000000000000        43.0816995853277        1.50022385611335     
   19.7000000000000        43.0819237411159        1.50023166183746     
   19.8000000000000        43.0821478680338        1.50023946655622     
   19.9000000000000        43.0823719660921        1.50024727027001     
   20.0000000000000        43.0825960353020        1.50025507297922     
   20.1000000000000        43.0828200756742        1.50026287468422     
   20.2000000000000        43.0830440872197        1.50027067538539     
   20.3000000000000        43.0832680699494        1.50027847508312     
   20.4000000000000        43.0834920238741        1.50028627377778     
   20.5000000000000        43.0837159490048        1.50029407146976     
   20.6000000000000        43.0839398453524        1.50030186815942     
   20.7000000000000        43.0841637129278        1.50030966384716     
   20.8000000000000        43.0843875517419        1.50031745853335     
   20.9000000000000        43.0846113618055        1.50032525221837     
   21.0000000000000        43.0848351431296        1.50033304490260     
   21.1000000000000        43.0850588957251        1.50034083658642     
   21.2000000000000        43.0852826196029        1.50034862727021     
   21.3000000000000        43.0855063147738        1.50035641695435     
   21.4000000000000        43.0857299812488        1.50036420563922     
   21.5000000000000        43.0859536190387        1.50037199332519     
   21.6000000000000        43.0861772281546        1.50037978001266     
   21.7000000000000        43.0864008086071        1.50038756570198     
   21.8000000000000        43.0866243604073        1.50039535039356     
   21.9000000000000        43.0868478835660        1.50040313408775     
   22.0000000000000        43.0870713780942        1.50041091678496     
   22.1000000000000        43.0872948440026        1.50041869848554     
   22.2000000000000        43.0875182813022        1.50042647918989     
   22.3000000000000        43.0877416900040        1.50043425889838     
   22.4000000000000        43.0879650701187        1.50044203761139     
   22.5000000000000        43.0881884216573        1.50044981532930     
   22.6000000000000        43.0884117446306        1.50045759205249     
   22.7000000000000        43.0886350390495        1.50046536778134     
   22.8000000000000        43.0888583049250        1.50047314251622     
   22.9000000000000        43.0890815422679        1.50048091625752     
   23.0000000000000        43.0893047510891        1.50048868900562     
   23.1000000000000        43.0895279313994        1.50049646076089     
   23.2000000000000        43.0897510832097        1.50050423152371     
   23.3000000000000        43.0899742065310        1.50051200129446     
   23.4000000000000        43.0901973013741        1.50051977007353     
   23.5000000000000        43.0904203677499        1.50052753786128     
   23.6000000000000        43.0906434056693        1.50053530465810     
   23.7000000000000        43.0908664151431        1.50054307046437     
   23.8000000000000        43.0910893961822        1.50055083528047     
   23.9000000000000        43.0913123487976        1.50055859910677     
   24.0000000000000        43.0915352730000        1.50056636194365     
   24.1000000000000        43.0917581688003        1.50057412379150     
   24.2000000000000        43.0919810362094        1.50058188465068     
   24.3000000000000        43.0922038752383        1.50058964452159     
   24.4000000000000        43.0924266858977        1.50059740340459     
   24.5000000000000        43.0926494681986        1.50060516130007     
   24.6000000000000        43.0928722221517        1.50061291820840     
   24.7000000000000        43.0930949477681        1.50062067412997     
   24.8000000000000        43.0933176450584        1.50062842906515     
   24.9000000000000        43.0935403140337        1.50063618301432     
   25.0000000000000        43.0937629547048        1.50064393597786     
   25.1000000000000        43.0939855670825        1.50065168795615     
   25.2000000000000        43.0942081511777        1.50065943894956     
   25.3000000000000        43.0944307070013        1.50066718895847     
   25.4000000000000        43.0946532345642        1.50067493798327     
   25.5000000000000        43.0948757338771        1.50068268602433     
   25.6000000000000        43.0950982049510        1.50069043308203     
   25.7000000000000        43.0953206477968        1.50069817915674     
   25.8000000000000        43.0955430624252        1.50070592424885     
   25.9000000000000        43.0957654488472        1.50071366835873     
   26.0000000000000        43.0959878070736        1.50072141148677     
   26.1000000000000        43.0962101371153        1.50072915363333     
   26.2000000000000        43.0964324389831        1.50073689479881     
   26.3000000000000        43.0966547126879        1.50074463498356     
   26.4000000000000        43.0968769582405        1.50075237418799     
   26.5000000000000        43.0970991756518        1.50076011241245     
   26.6000000000000        43.0973213649327        1.50076784965734     
   26.7000000000000        43.0975435260940        1.50077558592302     
   26.8000000000000        43.0977656591465        1.50078332120988     
