 # applied field (T), magnetization (2 f.u.), magnetization (T)
  0.000000000000000E+000  3.626492531749299E-015  1.212329231637756E-016
  0.100000000000000       0.177909987531430       5.947495454530043E-003
  0.200000000000000       0.355817280116726       1.189490081754751E-002
  0.300000000000000       0.533719182850940       1.784212599891660E-002
  0.400000000000000       0.711613000911439       2.378908091125338E-002
  0.500000000000000       0.889496039599120       2.973567547130345E-002
  0.600000000000000        1.06736560437954       3.568181960131678E-002
  0.700000000000000        1.24521900092408       4.162742323042465E-002
  0.800000000000000        1.42305353515118       4.757239629601667E-002
  0.900000000000000        1.60086651326747       5.351664874511677E-002
   1.00000000000000        1.82296377255274       6.094131589501098E-002
   1.10000000000000        2.00071841972103       6.688361835213544E-002
   1.20000000000000        2.17844276008866       7.282490765894914E-002
   1.30000000000000        2.35613410154708       7.876509381879923E-002
   1.40000000000000        2.53378975249217       8.470408685189620E-002
   1.50000000000000        2.71140702186541       9.064179679668932E-002
   1.60000000000000        2.88898321919506       9.657813371124420E-002
   1.70000000000000        3.06651565463734       0.102513007674619     
   1.80000000000000        3.24400163901764       0.108446328788242     
   1.90000000000000        3.42143848387164       0.114378007177286     
   2.00000000000000        3.59882350148662       0.120307952992051     
   2.10000000000000        3.77615400494250       0.126236076409332     
   2.20000000000000        3.95342730815313       0.132162287633806     
   2.30000000000000        4.13064072590744       0.138086496899400     
   2.40000000000000        4.30779157391063       0.144008614470675     
   2.50000000000000        4.48487716882540       0.149928550644198     
   2.60000000000000        4.66189482831302       0.155846215749920     
   2.70000000000000        4.83884187107466       0.161761520152555     
   2.80000000000000        5.01571561689247       0.167674374252954     
   2.90000000000000        5.23656672863367       0.175057382938605     
   3.00000000000000        5.41326581231363       0.180964398118518     
   3.10000000000000        5.58988289797933       0.186868672121142     
   3.20000000000000        5.76641531046835       0.192770115516332     
   3.30000000000000        5.94286037591551       0.198668638917307     
   3.40000000000000        6.11921542179394       0.204564152982025     
   3.50000000000000        6.29547777695629       0.210456568414563     
   3.60000000000000        6.47164477167580       0.216345795966487     
   3.70000000000000        6.64771373768743       0.222231746438227     
   3.80000000000000        6.82368200822898       0.228114330680456     
   3.90000000000000        6.99954691808216       0.233993459595455     
   4.00000000000000        7.17530580361369       0.239869044138494     
   4.10000000000000        7.35095600281625       0.245740995319200     
   4.20000000000000        7.52649485534965       0.251609224202929     
   4.30000000000000        7.70191970258172       0.257473641912137     
   4.40000000000000        7.87722788762935       0.263334159627752     
   4.50000000000000        8.05241675539940       0.269190688590537     
   4.60000000000000        8.22748365262967       0.275043140102467     
   4.70000000000000        8.40242592792976       0.280891425528087     
   4.80000000000000        8.62079182220086       0.288191353888615     
   4.90000000000000        8.79544409622410       0.294029944629301     
   5.00000000000000        8.96996314643762       0.299864081724558     
   5.10000000000000        9.14434632986425       0.305693676820185     
   5.20000000000000        9.31859100561272       0.311518641631714     
   5.30000000000000        9.49269453491815       0.317338887945760     
   5.40000000000000        9.66665428118269       0.323154327621381     
   5.50000000000000        9.84046761001596       0.328964872591432     
   5.60000000000000        10.0141318892755       0.334770434863913     
   5.70000000000000        10.1876444891070       0.340570926523322     
   5.80000000000000        10.3610027819847       0.346366259731995     
   5.90000000000000        10.5342041427517       0.352156346731457     
   6.00000000000000        10.7072459486598       0.357941099843757     
   6.10000000000000        10.8801255794094       0.363720431472808     
   6.20000000000000        11.0528404171900       0.369494254105719     
   6.30000000000000        11.2253878467194       0.375262480314131     
   6.40000000000000        11.3977652552838       0.381025022755539     
   6.50000000000000        11.5699700327770       0.386781794174616     
   6.60000000000000        11.7419995717404       0.392532707404536     
   6.70000000000000        11.9138512674016       0.398277675368284     
   6.80000000000000        12.1282811699678       0.405446024309921     
   6.90000000000000        12.2997233263466       0.411177301457011     
   7.00000000000000        12.4709791947301       0.416902351033513     
   7.10000000000000        12.6420461822037       0.422621086358813     
   7.20000000000000        12.8129216987438       0.428333420848933     
   7.30000000000000        12.9836031572557       0.434039268017815     
   7.40000000000000        13.1540879736121       0.439738541478595     
   7.50000000000000        13.3243735666906       0.445431154944872     
   7.60000000000000        13.4944573584121       0.451117022231968     
   7.70000000000000        13.6643367737776       0.456796057258185     
   7.80000000000000        13.8340092409062       0.462468174046053     
   7.90000000000000        14.0034721910717       0.468133286723564     
   8.00000000000000        14.1727230587392       0.473791309525405     
   8.10000000000000        14.3417592816025       0.479442156794183     
   8.20000000000000        14.5105783006194       0.485085742981631     
   8.30000000000000        14.6791775600484       0.490721982649817     
   8.40000000000000        14.8475545074839       0.496350790472331     
   8.50000000000000        15.0157065938919       0.501972081235472     
   8.60000000000000        15.1836312736447       0.507585769839419     
   8.70000000000000        15.3930853815313       0.514587778955786     
   8.80000000000000        15.5604892596240       0.520184057263946     
   8.90000000000000        15.7276574835968       0.525772457701804     
   9.00000000000000        15.8945875226881       0.531352895666506     
   9.10000000000000        16.0612768497211       0.536925286675034     
   9.20000000000000        16.2277229411363       0.542489546365297     
   9.30000000000000        16.3939232770238       0.548045590497207     
   9.40000000000000        16.5598753411549       0.553593334953744     
   9.50000000000000        16.7255766210140       0.559132695742003     
   9.60000000000000        16.8910246078285       0.564663588994226     
   9.70000000000000        17.0562167966001       0.570185930968812     
   9.80000000000000        17.2211506861339       0.575699638051316     
   9.90000000000000        17.3858237790681       0.581204626755429     
   10.0000000000000        17.5502335819024       0.586700813723934     
   10.1000000000000        17.7143776050263       0.592188115729650     
   10.2000000000000        17.8782533627468       0.597666449676348     
   10.3000000000000        18.0418583733147       0.603135732599654     
   10.4000000000000        18.2458549489251       0.609955297498832     
   10.5000000000000        18.4088419112973       0.615403919194028     
   10.6000000000000        18.5715500903783       0.620843221219322     
   10.7000000000000        18.7339770214746       0.626273121180491     
   10.8000000000000        18.8961202439669       0.631693536819525     
   10.9000000000000        19.0579773013331       0.637104386015380     
   11.0000000000000        19.2195457411700       0.642505586784704     
   11.1000000000000        19.3808231152141       0.647897057282538     
   11.2000000000000        19.5418069793619       0.653278715802989     
   11.3000000000000        19.7024948936893       0.658650480779877     
   11.4000000000000        19.8628844224696       0.664012270787349     
   11.5000000000000        20.0229731341915       0.669364004540458     
   11.6000000000000        20.1827586015752       0.674705600895733     
   11.7000000000000        20.3422384015885       0.680036978851682     
   11.8000000000000        20.5410322898364       0.686682618948385     
   11.9000000000000        20.6998157164855       0.691990717281446     
   12.0000000000000        20.8582856325268       0.697288335017319     
   12.1000000000000        21.0164396331404       0.702575391763353     
   12.2000000000000        21.1742753178192       0.707851807271078     
   12.3000000000000        21.3317902903785       0.713117501436512     
   12.4000000000000        21.4889821589637       0.718372394300435     
   12.5000000000000        21.6458485360572       0.723616406048608     
   12.6000000000000        21.8023870384841       0.728849457011968     
   12.7000000000000        21.9585952874165       0.734071467666774     
   12.8000000000000        22.1144709083769       0.739282358634715     
   12.9000000000000        22.3087242776456       0.745776210086136     
   13.0000000000000        22.4638430662146       0.750961800297944     
   13.1000000000000        22.6186215420513       0.756136013922885     
   13.2000000000000        22.7730573491848       0.761298772201313     
   13.3000000000000        22.9271481359897       0.766449996518865     
   13.4000000000000        23.0808915551818       0.771589608406295     
   13.5000000000000        23.2342852638113       0.776717529539257     
   13.6000000000000        23.3873269232547       0.781833681738035     
   13.7000000000000        23.5400141992058       0.786937986967233     
   13.8000000000000        23.7302539057715       0.793297662473765     
   13.9000000000000        23.8821355671319       0.798375036167625     
   14.0000000000000        24.0336552905272       0.803440310347391     
   14.1000000000000        24.1848107598730       0.808493407586817     
   14.2000000000000        24.3355996633279       0.813534250601507     
   14.3000000000000        24.4860196932749       0.818562762248288     
   14.4000000000000        24.6360685463009       0.823578865524514     
   14.5000000000000        24.8229885974189       0.829827565610495     
   14.6000000000000        24.9721941802663       0.834815478532577     
   14.7000000000000        25.1210211313088       0.839790733868821     
   14.8000000000000        25.2694671647486       0.844753255205461     
   14.9000000000000        25.4175299988579       0.849702966264792     
   15.0000000000000        25.5652073559480       0.854639790904138     
   15.1000000000000        25.7491447429120       0.860788781121412     
   15.2000000000000        25.8959467633105       0.865696343429469     
   15.3000000000000        26.0423559342497       0.870590772858333     
   15.4000000000000        26.1883699948444       0.875471993827060     
   15.5000000000000        26.3339866880610       0.880339930883468     
   15.6000000000000        26.5153331234816       0.886402306106603     
   15.7000000000000        26.6600478147598       0.891240089417836     
   15.8000000000000        26.8043578320390       0.896064344557866     
   15.9000000000000        26.9482609341978       0.900874996606453     
   16.0000000000000        27.1274532997273       0.906865361702090     
   16.1000000000000        27.2704329860377       0.911645144142752     
   16.2000000000000        27.4129985010436       0.916411080919183     
   16.3000000000000        27.5551476186796       0.921163097614457     
   16.4000000000000        27.7321355618372       0.927079769309184     
   16.5000000000000        27.8733399941290       0.931800205361527     
   16.6000000000000        28.0141208203385       0.936506480346891     
   16.7000000000000        28.1893893589419       0.942365672689771     
   16.8000000000000        28.3292093281272       0.947039826416162     
   16.9000000000000        28.4685985166184       0.951699579229731     
   17.0000000000000        28.6075547225010       0.956344857520920     
   17.1000000000000        28.7805307790733       0.962127412646022     
   17.2000000000000        28.9185050902152       0.966739866391561     
   17.3000000000000        29.0560392855727       0.971337607154072     
   17.4000000000000        29.2272289625578       0.977060443965309     
   17.5000000000000        29.3637652564226       0.981624825079638     
   17.6000000000000        29.5337014605267       0.987305758542077     
   17.7000000000000        29.6692288107595       0.991836410871708     
   17.8000000000000        29.8043040398684       0.996351948882204     
   17.9000000000000        29.9724051657911        1.00197153604647     
   18.0000000000000        30.1064555486267        1.00645281365014     
   18.1000000000000        30.2732696006621        1.01202937419066     
   18.2000000000000        30.4062841620993        1.01647602449124     
   18.3000000000000        30.5717974525654        1.02200910083153     
   18.4000000000000        30.7037652419454        1.02642075775070     
   18.5000000000000        30.8679641128839        1.03190989330793     
   18.6000000000000        30.9988742023226        1.03628619152869     
   18.7000000000000        31.1617450234041        1.04173093064367     
   18.8000000000000        31.2915865061477        1.04607150555541     
   18.9000000000000        31.4531156726457        1.05147139342484     
   19.0000000000000        31.6138938342749        1.05684617535105     
   19.1000000000000        31.7420515923572        1.06113046368266     
   19.2000000000000        31.9014669869788        1.06645968857919     
   19.3000000000000        32.0285283542277        1.07070732478357     
   19.4000000000000        32.1865674341303        1.07599053975312     
   19.5000000000000        32.3438362871069        1.08124800618992     
   19.6000000000000        32.4691708037336        1.08543791412188     
   19.7000000000000        32.6250423099941        1.09064866753622     
   19.8000000000000        32.7801319234432        1.09583328242959     
   19.9000000000000        32.9344354847431        1.10099161975613     
   20.0000000000000        33.0879488373494        1.10612354056342     
   20.1000000000000        33.2102624333925        1.11021245972185     
   20.2000000000000        33.3623424863680        1.11529646560789     
   20.3000000000000        33.5136207024744        1.12035366624709     
   20.4000000000000        33.6640929353509        1.12538392302740     
   20.5000000000000        33.8137550412926        1.13038709742561     
   20.6000000000000        33.9626028792795        1.13536305100825     
   20.7000000000000        34.1106323110256        1.14031164543323     
   20.8000000000000        34.2578392010524        1.14523274245233     
   20.9000000000000        34.4042194167845        1.15012620391439     
   21.0000000000000        34.5497688286716        1.15499189176935     
   21.1000000000000        34.6944833103347        1.15982966807319     
   21.2000000000000        34.8669634930494        1.16559564623398     
   21.3000000000000        35.0098271255104        1.17037154901757     
   21.4000000000000        35.1518426509526        1.17511909975241     
   21.5000000000000        35.2930059584927        1.17983816101249     
   21.6000000000000        35.4612040835353        1.18546099083802     
   21.7000000000000        35.6004785858380        1.19011690971515     
   21.8000000000000        35.7388877503593        1.19474390052256     
   21.9000000000000        35.9037652918278        1.20025572390047     
   22.0000000000000        36.0402568587717        1.20481860980274     
   22.1000000000000        36.2028226191490        1.21025315079913     
   22.2000000000000        36.3641177528531        1.21564521499886     
   22.3000000000000        36.4976072596379        1.22010774262783     
   22.4000000000000        36.6565541930827        1.22542130696052     
   22.5000000000000        36.8142107066220        1.23069173281273     
   22.6000000000000        36.9705698510740        1.23591878787470     
   22.7000000000000        37.1256246980106        1.24110224053047     
   22.8000000000000        37.2793683413942        1.24624185991258     
   22.9000000000000        37.4317938992900        1.25133741595931     
   23.0000000000000        37.5828945156465        1.25638867947423     
   23.1000000000000        37.7326633621435        1.26139542218795     
   23.2000000000000        37.8810936400984        1.26635741682187     
   23.3000000000000        38.0525146764981        1.27208798793226     
   23.4000000000000        38.1980221394769        1.27695227344357     
   23.5000000000000        38.3421697256539        1.28177109854420     
   23.6000000000000        38.5085693744495        1.28733380566694     
   23.7000000000000        38.6730999157553        1.29283402889850     
   23.8000000000000        38.8126679494192        1.29749976047058     
   23.9000000000000        38.9736991409991        1.30288300113766     
   24.0000000000000        39.1328317070458        1.30820277113126     
   24.1000000000000        39.2900554872344        1.31345873079373     
   24.2000000000000        39.4453604167333        1.31865054365976     
   24.3000000000000        39.6204550651737        1.32450392288912     
   24.4000000000000        39.7716153563277        1.32955718132063     
   24.5000000000000        39.9419488770265        1.33525139699771     
   24.6000000000000        40.0889198296239        1.34016460667553     
   24.7000000000000        40.2544417728110        1.34569797227456     
   24.8000000000000        40.4173776927721        1.35114488763212     
   24.9000000000000        40.5777138287020        1.35650489272724     
   25.0000000000000        40.7354366376491        1.36177753482173     
   25.1000000000000        40.8905328001643        1.36696236864906     
   25.2000000000000        41.0618353642879        1.37268897925486     
   25.3000000000000        41.2113073226376        1.37768579705694     
   25.4000000000000        41.3762516173486        1.38319985198244     
   25.5000000000000        41.5378045318832        1.38860053374400     
   25.6000000000000        41.6959488758317        1.39388726766965     
   25.7000000000000        41.8506678492592        1.39905949214090     
   25.8000000000000        42.0185220415617        1.40467082436342     
   25.9000000000000        42.1659568385686        1.40959954026748     
   26.0000000000000        42.3256796018878        1.41493904043836     
   26.1000000000000        42.4810925069932        1.42013446290742     
   26.2000000000000        42.6321753172440        1.42518513116777     
   26.3000000000000        42.7933278633976        1.43057242869408     
   26.4000000000000        42.9352547234877        1.43531701536386     
   26.5000000000000        43.0862913455800        1.44036613956326     
   26.6000000000000        43.2319944548980        1.44523696549274     
   26.7000000000000        43.3848228794375        1.45034598929114     
   26.8000000000000        43.5312489231308        1.45524098277281     
   26.9000000000000        43.6712449109050        1.45992102076558     
   27.0000000000000        43.8047842729483        1.46438521504592     
   27.1000000000000        43.9421283698188        1.46897660085386     
   27.2000000000000        44.0814882995189        1.47363537555187     
