 # applied field (T), theta (degree), phi (degree), abs
     0.00000     0.00000     0.00000    35.80535
     0.10000     0.40127     0.00000    35.80535
     0.20000     0.80255     0.00000    35.80535
     0.30000     1.20382     0.00000    35.80535
     0.40000     1.60510     0.00000    35.80535
     0.50000     2.06369     0.00000    35.80535
     0.60000     2.46497     0.00000    35.80535
     0.70000     2.86624     0.00000    35.80535
     0.80000     3.26752     0.00000    35.80535
     0.90000     3.66879     0.00000    35.80535
     1.00000     4.07006     0.00000    35.80535
     1.10000     4.47134     0.00000    35.80535
     1.20000     4.87261     0.00000    35.80535
     1.30000     5.33121     0.00000    35.80535
     1.40000     5.73248     0.00000    35.80535
     1.50000     6.13376     0.00000    35.80535
     1.60000     6.53503     0.00000    35.80535
     1.70000     6.93631     0.00000    35.80535
     1.80000     7.33758     0.00000    35.80535
     1.90000     7.79618     0.00000    35.80535
     2.00000     8.19745     0.00000    35.80535
     2.10000     8.59873     0.00000    35.80535
     2.20000     9.00000     0.00000    35.80535
     2.30000     9.40127     0.00000    35.80535
     2.40000     9.80255     0.00000    35.80535
     2.50000    10.26115     0.00000    35.80535
     2.60000    10.66242     0.00000    35.80535
     2.70000    11.06369     0.00000    35.80535
     2.80000    11.46497     0.00000    35.80535
     2.90000    11.86624     0.00000    35.80535
     3.00000    12.32484     0.00000    35.80535
     3.10000    12.72611     0.00000    35.80535
     3.20000    13.12739     0.00000    35.80535
     3.30000    13.52866     0.00000    35.80535
     3.40000    13.98726     0.00000    35.80535
     3.50000    14.38854     0.00000    35.80535
     3.60000    14.78981     0.00000    35.80535
     3.70000    15.24841     0.00000    35.80535
     3.80000    15.64968     0.00000    35.80535
     3.90000    16.05096     0.00000    35.80535
     4.00000    16.50955     0.00000    35.80535
     4.10000    16.91083     0.00000    35.80535
     4.20000    17.31210     0.00000    35.80535
     4.30000    17.77070     0.00000    35.80535
     4.40000    18.17197     0.00000    35.80535
     4.50000    18.57325     0.00000    35.80535
     4.60000    19.03185     0.00000    35.80535
     4.70000    19.43312     0.00000    35.80535
     4.80000    19.89172     0.00000    35.80535
     4.90000    20.29299     0.00000    35.80535
     5.00000    20.75159     0.00000    35.80535
     5.10000    21.15287     0.00000    35.80535
     5.20000    21.61146     0.00000    35.80535
     5.30000    22.01274     0.00000    35.80535
     5.40000    22.47134     0.00000    35.80535
     5.50000    22.87261     0.00000    35.80535
     5.60000    23.33121     0.00000    35.80535
     5.70000    23.73248     0.00000    35.80535
     5.80000    24.19108     0.00000    35.80535
     5.90000    24.64968     0.00000    35.80535
     6.00000    25.05096     0.00000    35.80535
     6.10000    25.50955     0.00000    35.80535
     6.20000    25.96815     0.00000    35.80535
     6.30000    26.36943     0.00000    35.80535
     6.40000    26.82803     0.00000    35.80535
     6.50000    27.28662     0.00000    35.80535
     6.60000    27.74522     0.00000    35.80535
     6.70000    28.14650     0.00000    35.80535
     6.80000    28.60510     0.00000    35.80535
     6.90000    29.06369     0.00000    35.80535
     7.00000    29.52229     0.00000    35.80535
     7.10000    29.98089     0.00000    35.80535
     7.20000    30.43949     0.00000    35.80535
     7.30000    30.89809     0.00000    35.80535
     7.40000    31.35669     0.00000    35.80535
     7.50000    31.81529     0.00000    35.80535
     7.60000    32.27389     0.00000    35.80535
     7.70000    32.73248     0.00000    35.80535
     7.80000    33.19108     0.00000    35.80535
     7.90000    33.64968     0.00000    35.80535
     8.00000    34.16561     0.00000    35.80535
     8.10000    34.62420     0.00000    35.80535
     8.20000    35.08280     0.00000    35.80535
     8.30000    35.59873     0.00000    35.80535
     8.40000    36.05732     0.00000    35.80535
     8.50000    36.51592     0.00000    35.80535
     8.60000    37.03185     0.00000    35.80535
     8.70000    37.49045     0.00000    35.80535
     8.80000    38.00637     0.00000    35.80535
     8.90000    38.46497     0.00000    35.80535
     9.00000    38.98089     0.00000    35.80535
     9.10000    39.49682     0.00000    35.80535
     9.20000    39.95541     0.00000    35.80535
     9.30000    40.47134     0.00000    35.80535
     9.40000    40.98726     0.00000    35.80535
     9.50000    41.50318     0.00000    35.80535
     9.60000    42.01911     0.00000    35.80535
     9.70000    42.53503     0.00000    35.80535
     9.80000    43.05096     0.00000    35.80535
     9.90000    43.56688     0.00000    35.80535
    10.00000    44.08280     0.00000    35.80535
    10.10000    44.59873     0.00000    35.80535
    10.20000    45.17197     0.00000    35.80535
    10.30000    45.68790     0.00000    35.80535
    10.40000    46.26115     0.00000    35.80535
    10.50000    46.77707     0.00000    35.80535
    10.60000    47.35032     0.00000    35.80535
    10.70000    47.92357     0.00000    35.80535
    10.80000    48.49682     0.00000    35.80535
    10.90000    49.01274     0.00000    35.80535
    11.00000    49.64331     0.00000    35.80535
    11.10000    50.21656     0.00000    35.80535
    11.20000    50.78981     0.00000    35.80535
    11.30000    51.36306     0.00000    35.80535
    11.40000    51.99363     0.00000    35.80535
    11.50000    52.56688     0.00000    35.80535
    11.60000    53.19745     0.00000    35.80535
    11.70000    53.82803     0.00000    35.80535
    11.80000    54.45860     0.00000    35.80535
    11.90000    55.08917     0.00000    35.80535
    12.00000    55.71975     0.00000    35.80535
    12.10000    56.40764     0.00000    35.80535
    12.20000    57.09554     0.00000    35.80535
    12.30000    57.72611     0.00000    35.80535
    12.40000    58.41401     0.00000    35.80535
    12.50000    59.15924     0.00000    35.80535
    12.60000    59.84713     0.00000    35.80535
    12.70000    60.59236     0.00000    35.80535
    12.80000    61.33758     0.00000    35.80535
    12.90000    62.08280     0.00000    35.80535
    13.00000    62.88535     0.00000    35.80535
    13.10000    63.68790     0.00000    35.80535
    13.20000    64.54777     0.00000    35.80535
    13.30000    65.35032     0.00000    35.80535
    13.40000    66.26752     0.00000    35.80535
    13.50000    67.12739     0.00000    35.80535
    13.60000    68.10191     0.00000    35.80535
    13.70000    69.07643     0.00000    35.80535
    13.80000    70.10828     0.00000    35.80535
    13.90000    71.14013     0.00000    35.80535
    14.00000    72.28662     0.00000    35.80535
    14.10000    73.49045     0.00000    35.80535
    14.20000    74.75159     0.00000    35.80535
    14.30000    76.18471     0.00000    35.80535
    14.40000    77.73248     0.00000    35.80535
    14.50000    79.50955     0.00000    35.80535
    14.60000    81.63057     0.00000    35.80535
    14.70000    84.55414     0.00000    35.80535
    14.80000    90.00000     0.00000    35.80535
    14.90000    90.00000     0.00000    35.80535
    15.00000    90.00000     0.00000    35.80535
    15.10000    90.00000     0.00000    35.80535
    15.20000    90.00000     0.00000    35.80535
    15.30000    90.00000     0.00000    35.80535
    15.40000    90.00000     0.00000    35.80535
    15.50000    90.00000     0.00000    35.80535
    15.60000    90.00000     0.00000    35.80535
    15.70000    90.00000     0.00000    35.80535
    15.80000    90.00000     0.00000    35.80535
    15.90000    90.00000     0.00000    35.80535
    16.00000    90.00000     0.00000    35.80535
    16.10000    90.00000     0.00000    35.80535
    16.20000    90.00000     0.00000    35.80535
    16.30000    90.00000     0.00000    35.80535
    16.40000    90.00000     0.00000    35.80535
    16.50000    90.00000     0.00000    35.80535
    16.60000    90.00000     0.00000    35.80535
    16.70000    90.00000     0.00000    35.80535
    16.80000    90.00000     0.00000    35.80535
    16.90000    90.00000     0.00000    35.80535
    17.00000    90.00000     0.00000    35.80535
    17.10000    90.00000     0.00000    35.80535
    17.20000    90.00000     0.00000    35.80535
    17.30000    90.00000     0.00000    35.80535
    17.40000    90.00000     0.00000    35.80535
    17.50000    90.00000     0.00000    35.80535
    17.60000    90.00000     0.00000    35.80535
    17.70000    90.00000     0.00000    35.80535
    17.80000    90.00000     0.00000    35.80535
    17.90000    90.00000     0.00000    35.80535
    18.00000    90.00000     0.00000    35.80535
    18.10000    90.00000     0.00000    35.80535
    18.20000    90.00000     0.00000    35.80535
    18.30000    90.00000     0.00000    35.80535
    18.40000    90.00000     0.00000    35.80535
    18.50000    90.00000     0.00000    35.80535
    18.60000    90.00000     0.00000    35.80535
    18.70000    90.00000     0.00000    35.80535
    18.80000    90.00000     0.00000    35.80535
    18.90000    90.00000     0.00000    35.80535
    19.00000    90.00000     0.00000    35.80535
    19.10000    90.00000     0.00000    35.80535
    19.20000    90.00000     0.00000    35.80535
    19.30000    90.00000     0.00000    35.80535
    19.40000    90.00000     0.00000    35.80535
    19.50000    90.00000     0.00000    35.80535
    19.60000    90.00000     0.00000    35.80535
    19.70000    90.00000     0.00000    35.80535
    19.80000    90.00000     0.00000    35.80535
    19.90000    90.00000     0.00000    35.80535
    20.00000    90.00000     0.00000    35.80535
    20.10000    90.00000     0.00000    35.80535
    20.20000    90.00000     0.00000    35.80535
    20.30000    90.00000     0.00000    35.80535
    20.40000    90.00000     0.00000    35.80535
    20.50000    90.00000     0.00000    35.80535
    20.60000    90.00000     0.00000    35.80535
    20.70000    90.00000     0.00000    35.80535
    20.80000    90.00000     0.00000    35.80535
    20.90000    90.00000     0.00000    35.80535
    21.00000    90.00000     0.00000    35.80535
    21.10000    90.00000     0.00000    35.80535
    21.20000    90.00000     0.00000    35.80535
    21.30000    90.00000     0.00000    35.80535
    21.40000    90.00000     0.00000    35.80535
    21.50000    90.00000     0.00000    35.80535
    21.60000    90.00000     0.00000    35.80535
    21.70000    90.00000     0.00000    35.80535
    21.80000    90.00000     0.00000    35.80535
    21.90000    90.00000     0.00000    35.80535
    22.00000    90.00000     0.00000    35.80535
    22.10000    90.00000     0.00000    35.80535
    22.20000    90.00000     0.00000    35.80535
    22.30000    90.00000     0.00000    35.80535
    22.40000    90.00000     0.00000    35.80535
    22.50000    90.00000     0.00000    35.80535
    22.60000    90.00000     0.00000    35.80535
    22.70000    90.00000     0.00000    35.80535
    22.80000    90.00000     0.00000    35.80535
    22.90000    90.00000     0.00000    35.80535
    23.00000    90.00000     0.00000    35.80535
    23.10000    90.00000     0.00000    35.80535
    23.20000    90.00000     0.00000    35.80535
    23.30000    90.00000     0.00000    35.80535
    23.40000    90.00000     0.00000    35.80535
    23.50000    90.00000     0.00000    35.80535
    23.60000    90.00000     0.00000    35.80535
    23.70000    90.00000     0.00000    35.80535
    23.80000    90.00000     0.00000    35.80535
    23.90000    90.00000     0.00000    35.80535
    24.00000    90.00000     0.00000    35.80535
    24.10000    90.00000     0.00000    35.80535
    24.20000    90.00000     0.00000    35.80535
    24.30000    90.00000     0.00000    35.80535
    24.40000    90.00000     0.00000    35.80535
    24.50000    90.00000     0.00000    35.80535
    24.60000    90.00000     0.00000    35.80535
    24.70000    90.00000     0.00000    35.80535
    24.80000    90.00000     0.00000    35.80535
    24.90000    90.00000     0.00000    35.80535
    25.00000    90.00000     0.00000    35.80535
    25.10000    90.00000     0.00000    35.80535
    25.20000    90.00000     0.00000    35.80535
    25.30000    90.00000     0.00000    35.80535
    25.40000    90.00000     0.00000    35.80535
    25.50000    90.00000     0.00000    35.80535
    25.60000    90.00000     0.00000    35.80535
    25.70000    90.00000     0.00000    35.80535
    25.80000    90.00000     0.00000    35.80535
    25.90000    90.00000     0.00000    35.80535
    26.00000    90.00000     0.00000    35.80535
    26.10000    90.00000     0.00000    35.80535
    26.20000    90.00000     0.00000    35.80535
    26.30000    90.00000     0.00000    35.80535
    26.40000    90.00000     0.00000    35.80535
    26.50000    90.00000     0.00000    35.80535
    26.60000    90.00000     0.00000    35.80535
    26.70000    90.00000     0.00000    35.80535
    26.80000    90.00000     0.00000    35.80535
    26.90000    90.00000     0.00000    35.80535
    27.00000    90.00000     0.00000    35.80535
    27.10000    90.00000     0.00000    35.80535
    27.20000    90.00000     0.00000    35.80535
    27.30000    90.00000     0.00000    35.80535
    27.40000    90.00000     0.00000    35.80535
    27.50000    90.00000     0.00000    35.80535
    27.60000    90.00000     0.00000    35.80535
    27.70000    90.00000     0.00000    35.80535
    27.80000    90.00000     0.00000    35.80535
    27.90000    90.00000     0.00000    35.80535
    28.00000    90.00000     0.00000    35.80535
    28.10000    90.00000     0.00000    35.80535
    28.20000    90.00000     0.00000    35.80535
    28.30000    90.00000     0.00000    35.80535
    28.40000    90.00000     0.00000    35.80535
    28.50000    90.00000     0.00000    35.80535
    28.60000    90.00000     0.00000    35.80535
    28.70000    90.00000     0.00000    35.80535
    28.80000    90.00000     0.00000    35.80535
    28.90000    90.00000     0.00000    35.80535
    29.00000    90.00000     0.00000    35.80535
    29.10000    90.00000     0.00000    35.80535
    29.20000    90.00000     0.00000    35.80535
    29.30000    90.00000     0.00000    35.80535
    29.40000    90.00000     0.00000    35.80535
    29.50000    90.00000     0.00000    35.80535
    29.60000    90.00000     0.00000    35.80535
    29.70000    90.00000     0.00000    35.80535
    29.80000    90.00000     0.00000    35.80535
    29.90000    90.00000     0.00000    35.80535
    30.00000    90.00000     0.00000    35.80535
    30.10000    90.00000     0.00000    35.80535
    30.20000    90.00000     0.00000    35.80535
    30.30000    90.00000     0.00000    35.80535
    30.40000    90.00000     0.00000    35.80535
    30.50000    90.00000     0.00000    35.80535
    30.60000    90.00000     0.00000    35.80535
    30.70000    90.00000     0.00000    35.80535
    30.80000    90.00000     0.00000    35.80535
    30.90000    90.00000     0.00000    35.80535
    31.00000    90.00000     0.00000    35.80535
    31.10000    90.00000     0.00000    35.80535
    31.20000    90.00000     0.00000    35.80535
    31.30000    90.00000     0.00000    35.80535
    31.40000    90.00000     0.00000    35.80535
    31.50000    90.00000     0.00000    35.80535
    31.60000    90.00000     0.00000    35.80535
    31.70000    90.00000     0.00000    35.80535
    31.80000    90.00000     0.00000    35.80535
    31.90000    90.00000     0.00000    35.80535
    32.00000    90.00000     0.00000    35.80535
    32.10000    90.00000     0.00000    35.80535
    32.20000    90.00000     0.00000    35.80535
    32.30000    90.00000     0.00000    35.80535
    32.40000    90.00000     0.00000    35.80535
    32.50000    90.00000     0.00000    35.80535
    32.60000    90.00000     0.00000    35.80535
    32.70000    90.00000     0.00000    35.80535
    32.80000    90.00000     0.00000    35.80535
    32.90000    90.00000     0.00000    35.80535
    33.00000    90.00000     0.00000    35.80535
    33.10000    90.00000     0.00000    35.80535
    33.20000    90.00000     0.00000    35.80535
    33.30000    90.00000     0.00000    35.80535
    33.40000    90.00000     0.00000    35.80535
    33.50000    90.00000     0.00000    35.80535
    33.60000    90.00000     0.00000    35.80535
    33.70000    90.00000     0.00000    35.80535
    33.80000    90.00000     0.00000    35.80535
    33.90000    90.00000     0.00000    35.80535
    34.00000    90.00000     0.00000    35.80535
    34.10000    90.00000     0.00000    35.80535
    34.20000    90.00000     0.00000    35.80535
    34.30000    90.00000     0.00000    35.80535
    34.40000    90.00000     0.00000    35.80535
    34.50000    90.00000     0.00000    35.80535
    34.60000    90.00000     0.00000    35.80535
    34.70000    90.00000     0.00000    35.80535
    34.80000    90.00000     0.00000    35.80535
    34.90000    90.00000     0.00000    35.80535
    35.00000    90.00000     0.00000    35.80535
    35.10000    90.00000     0.00000    35.80535
    35.20000    90.00000     0.00000    35.80535
    35.30000    90.00000     0.00000    35.80535
    35.40000    90.00000     0.00000    35.80535
    35.50000    90.00000     0.00000    35.80535
    35.60000    90.00000     0.00000    35.80535
    35.70000    90.00000     0.00000    35.80535
    35.80000    90.00000     0.00000    35.80535
    35.90000    90.00000     0.00000    35.80535
    36.00000    90.00000     0.00000    35.80535
    36.10000    90.00000     0.00000    35.80535
    36.20000    90.00000     0.00000    35.80535
    36.30000    90.00000     0.00000    35.80535
    36.40000    90.00000     0.00000    35.80535
    36.50000    90.00000     0.00000    35.80535
    36.60000    90.00000     0.00000    35.80535
    36.70000    90.00000     0.00000    35.80535
    36.80000    90.00000     0.00000    35.80535
    36.90000    90.00000     0.00000    35.80535
    37.00000    90.00000     0.00000    35.80535
    37.10000    90.00000     0.00000    35.80535
    37.20000    90.00000     0.00000    35.80535
    37.30000    90.00000     0.00000    35.80535
    37.40000    90.00000     0.00000    35.80535
    37.50000    90.00000     0.00000    35.80535
    37.60000    90.00000     0.00000    35.80535
    37.70000    90.00000     0.00000    35.80535
    37.80000    90.00000     0.00000    35.80535
    37.90000    90.00000     0.00000    35.80535
    38.00000    90.00000     0.00000    35.80535
    38.10000    90.00000     0.00000    35.80535
    38.20000    90.00000     0.00000    35.80535
    38.30000    90.00000     0.00000    35.80535
    38.40000    90.00000     0.00000    35.80535
    38.50000    90.00000     0.00000    35.80535
    38.60000    90.00000     0.00000    35.80535
    38.70000    90.00000     0.00000    35.80535
    38.80000    90.00000     0.00000    35.80535
    38.90000    90.00000     0.00000    35.80535
    39.00000    90.00000     0.00000    35.80535
    39.10000    90.00000     0.00000    35.80535
    39.20000    90.00000     0.00000    35.80535
    39.30000    90.00000     0.00000    35.80535
    39.40000    90.00000     0.00000    35.80535
    39.50000    90.00000     0.00000    35.80535
    39.60000    90.00000     0.00000    35.80535
    39.70000    90.00000     0.00000    35.80535
    39.80000    90.00000     0.00000    35.80535
    39.90000    90.00000     0.00000    35.80535
    40.00000    90.00000     0.00000    35.80535
