 # applied field (T), magnetization (2 f.u.), magnetization (T)
 # T=0 1st order approx.
 # K1(0) (K, MJ/m^3)   60.2068861841972        4.96758370456383     
 # K2(0) (K, MJ/m^3)  -13.9802750190076       -1.15349241210171     
 # from A20
 # K1(0) from A20 (K, MJ/m^3)   88.4588580392342        3.64930666216188     
  0.000000000000000E+000  1.334879706957196E-015  4.648420096455095E-017
  0.100000000000000       0.353762516205814       1.231898860349037E-002
  0.200000000000000       0.757962294327147       2.639434207398962E-002
  0.300000000000000        1.11167027930928       3.871143174954857E-002
  0.400000000000000        1.46532736403555       5.102674893751182E-002
  0.500000000000000        1.86934436464599       6.509573758989000E-002
  0.600000000000000        2.22283786231213       7.740535822426954E-002
  0.700000000000000        2.62662546614092       9.146635864666509E-002
  0.800000000000000        2.97988103341212       0.103767693887060     
  0.900000000000000        3.33300011350365       0.116064276266612     
   1.00000000000000        3.73629760663452       0.130108209679855     
   1.10000000000000        4.08906974096808       0.142392710449167     
   1.20000000000000        4.49192834603109       0.156421360566812     
   1.30000000000000        4.84427923103452       0.168691192270129     
   1.40000000000000        5.24661405865962       0.182701603009680     
   1.50000000000000        5.59846941346084       0.194954178981725     
   1.60000000000000        6.00019560245886       0.208943395242023     
   1.70000000000000        6.35148117240061       0.221176129730391     
   1.80000000000000        6.75251389368910       0.235141197528319     
   1.90000000000000        7.15314212972375       0.249092180031723     
   2.00000000000000        7.50340991389449       0.261289472406415     
   2.10000000000000        7.90321468597585       0.275211779618935     
   2.20000000000000        8.30254567298852       0.289117588325835     
   2.30000000000000        8.65162129259511       0.301273366235296     
   2.40000000000000        9.04999891564670       0.315145976174001     
   2.50000000000000        9.44783350823402       0.328999676291020     
   2.60000000000000        9.84510100033388       0.342833628401616     
   2.70000000000000        10.2417773293770       0.356646994580620     
   2.80000000000000        10.6378384404378       0.370438937169035     
   2.90000000000000        11.0332602864150       0.384208618780329     
   3.00000000000000        11.4280188282042       0.397955202306442     
   3.10000000000000        11.8712316932797       0.413389099295712     
   3.20000000000000        12.2645010637999       0.427083825762214     
   3.30000000000000        12.6570320662618       0.440752840212098     
   3.40000000000000        13.0976496804585       0.456096363392572     
   3.50000000000000        13.4885321056086       0.469707969823840     
   3.60000000000000        13.9272344562958       0.484984798235182     
   3.70000000000000        14.3648736310075       0.500224603920468     
   3.80000000000000        14.7530253551793       0.513741119796091     
   3.90000000000000        15.1885631092557       0.528907748206594     
   4.00000000000000        15.6710711576409       0.545710012089440     
   4.10000000000000        16.1041167666144       0.560789857119241     
   4.20000000000000        16.5359288498931       0.575826747374920     
   4.30000000000000        16.9664733877578       0.590819498195824     
   4.40000000000000        17.4432701366145       0.607422878843224     
   4.50000000000000        17.9184138843796       0.623968697423766     
   4.60000000000000        18.3918580700759       0.640455332555536     
   4.70000000000000        18.8635561638449       0.656881163940247     
   4.80000000000000        19.3334616684442       0.673244572415407     
   4.90000000000000        19.8481806874878       0.691168511326757     
   5.00000000000000        20.3606132049871       0.709012827934510     
   5.10000000000000        20.8706975145759       0.726775373452442     
   5.20000000000000        21.4243568634761       0.746055322279323     
   5.30000000000000        21.9293324327280       0.763639967338315     
   5.40000000000000        22.5227539393180       0.784304544397395     
   5.50000000000000        23.0673321536004       0.803268263016895     
   5.60000000000000        23.6536529502210       0.823685573728685     
   5.70000000000000        24.2807409020183       0.845522509462946     
   5.80000000000000        24.9475025540841       0.868740993097499     
   5.90000000000000        25.6088546275641       0.891771100253779     
   6.00000000000000        26.3081296483062       0.916121789251636     
   6.10000000000000        27.0439373019530       0.941744645502360     
   6.20000000000000        27.8572804111546       0.970067500621224     
   6.30000000000000        28.7028452189259       0.999512404344115     
   6.40000000000000        50.8486406279132        1.77069021081308     
   6.50000000000000        50.8487194241923        1.77069295471732     
   6.60000000000000        50.8487982091447        1.77069569822712     
   6.70000000000000        50.8488769827809        1.77069844134286     
   6.80000000000000        50.8489557451112        1.77070118406490     
   6.90000000000000        50.8490344961461        1.77070392639360     
   7.00000000000000        50.8491132358959        1.77070666832932     
   7.10000000000000        50.8491919643711        1.77070940987243     
   7.20000000000000        50.8492706815820        1.77071215102328     
   7.30000000000000        50.8493493875391        1.77071489178225     
   7.40000000000000        50.8494280822526        1.77071763214969     
   7.50000000000000        50.8495067657331        1.77072037212595     
   7.60000000000000        50.8495854379908        1.77072311171142     
   7.70000000000000        50.8496640990362        1.77072585090643     
   7.80000000000000        50.8497427488795        1.77072858971136     
   7.90000000000000        50.8498213875313        1.77073132812657     
   8.00000000000000        50.8499000150016        1.77073406615241     
   8.10000000000000        50.8499786313011        1.77073680378925     
   8.20000000000000        50.8500572364399        1.77073954103745     
   8.30000000000000        50.8501358304284        1.77074227789736     
   8.40000000000000        50.8502144132770        1.77074501436935     
   8.50000000000000        50.8502929849959        1.77074775045377     
   8.60000000000000        50.8503715455956        1.77075048615099     
   8.70000000000000        50.8504500950862        1.77075322146136     
   8.80000000000000        50.8505286334781        1.77075595638525     
   8.90000000000000        50.8506071607816        1.77075869092300     
   9.00000000000000        50.8506856770071        1.77076142507499     
   9.10000000000000        50.8507641821647        1.77076415884157     
   9.20000000000000        50.8508426762649        1.77076689222309     
   9.30000000000000        50.8509211593178        1.77076962521991     
   9.40000000000000        50.8509996313337        1.77077235783240     
   9.50000000000000        50.8510780923229        1.77077509006091     
   9.60000000000000        50.8511565422958        1.77077782190580     
   9.70000000000000        50.8512349812624        1.77078055336742     
   9.80000000000000        50.8513134092332        1.77078328444614     
   9.90000000000000        50.8513918262183        1.77078601514230     
   10.0000000000000        50.8514702322280        1.77078874545627     
   10.1000000000000        50.8515486272725        1.77079147538840     
   10.2000000000000        50.8516270113621        1.77079420493905     
   10.3000000000000        50.8517053845070        1.77079693410858     
   10.4000000000000        50.8517837467173        1.77079966289733     
   10.5000000000000        50.8518620980035        1.77080239130568     
   10.6000000000000        50.8519404383755        1.77080511933396     
   10.7000000000000        50.8520187678437        1.77080784698255     
   10.8000000000000        50.8520970864183        1.77081057425178     
   10.9000000000000        50.8521753941094        1.77081330114203     
   11.0000000000000        50.8522536909273        1.77081602765364     
   11.1000000000000        50.8523319768821        1.77081875378696     
   11.2000000000000        50.8524102519840        1.77082147954236     
   11.3000000000000        50.8524885162433        1.77082420492019     
   11.4000000000000        50.8525667696699        1.77082692992080     
   11.5000000000000        50.8526450122742        1.77082965454454     
   11.6000000000000        50.8527232440663        1.77083237879177     
   11.7000000000000        50.8528014650564        1.77083510266284     
   11.8000000000000        50.8528796752545        1.77083782615811     
   11.9000000000000        50.8529578746709        1.77084054927793     
   12.0000000000000        50.8530360633157        1.77084327202265     
   12.1000000000000        50.8531142411990        1.77084599439263     
   12.2000000000000        50.8531924083309        1.77084871638822     
   12.3000000000000        50.8532705647216        1.77085143800976     
   12.4000000000000        50.8533487103812        1.77085415925762     
   12.5000000000000        50.8534268453198        1.77085688013215     
   12.6000000000000        50.8535049695476        1.77085960063369     
   12.7000000000000        50.8535830830745        1.77086232076260     
   12.8000000000000        50.8536611859108        1.77086504051924     
   12.9000000000000        50.8537392780665        1.77086775990394     
   13.0000000000000        50.8538173595517        1.77087047891707     
   13.1000000000000        50.8538954303764        1.77087319755898     
   13.2000000000000        50.8539734905509        1.77087591583001     
   13.3000000000000        50.8540515400851        1.77087863373051     
   13.4000000000000        50.8541295789891        1.77088135126085     
   13.5000000000000        50.8542076072729        1.77088406842136     
   13.6000000000000        50.8542856249467        1.77088678521240     
   13.7000000000000        50.8543636320205        1.77088950163432     
   13.8000000000000        50.8544416285043        1.77089221768746     
   13.9000000000000        50.8545196144082        1.77089493337219     
   14.0000000000000        50.8545975897422        1.77089764868884     
   14.1000000000000        50.8546755545163        1.77090036363777     
   14.2000000000000        50.8547535087406        1.77090307821932     
   14.3000000000000        50.8548314524251        1.77090579243385     
   14.4000000000000        50.8549093855798        1.77090850628170     
   14.5000000000000        50.8549873082147        1.77091121976322     
   14.6000000000000        50.8550652203399        1.77091393287877     
   14.7000000000000        50.8551431219653        1.77091664562868     
   14.8000000000000        50.8552210131009        1.77091935801331     
   14.9000000000000        50.8552988937568        1.77092207003301     
   15.0000000000000        50.8553767639428        1.77092478168812     
   15.1000000000000        50.8554546236690        1.77092749297899     
   15.2000000000000        50.8555324729454        1.77093020390597     
   15.3000000000000        50.8556103117820        1.77093291446940     
   15.4000000000000        50.8556881401886        1.77093562466963     
   15.5000000000000        50.8557659581753        1.77093833450702     
   15.6000000000000        50.8558437657520        1.77094104398190     
   15.7000000000000        50.8559215629288        1.77094375309462     
   15.8000000000000        50.8559993497154        1.77094646184553     
   15.9000000000000        50.8560771261219        1.77094917023497     
   16.0000000000000        50.8561548921581        1.77095187826330     
   16.1000000000000        50.8562326478342        1.77095458593085     
   16.2000000000000        50.8563103931598        1.77095729323798     
   16.3000000000000        50.8563881281450        1.77096000018502     
   16.4000000000000        50.8564658527998        1.77096270677233     
   16.5000000000000        50.8565435671339        1.77096541300024     
   16.6000000000000        50.8566212711573        1.77096811886911     
   16.7000000000000        50.8566989648800        1.77097082437928     
   16.8000000000000        50.8567766483118        1.77097352953108     
   16.9000000000000        50.8568543214625        1.77097623432488     
   17.0000000000000        50.8569319843421        1.77097893876101     
   17.1000000000000        50.8570096369605        1.77098164283981     
   17.2000000000000        50.8570872793276        1.77098434656163     
   17.3000000000000        50.8571649114531        1.77098704992682     
   17.4000000000000        50.8572425333471        1.77098975293571     
   17.5000000000000        50.8573201450192        1.77099245558865     
   17.6000000000000        50.8573977464795        1.77099515788598     
   17.7000000000000        50.8574753377377        1.77099785982805     
   17.8000000000000        50.8575529188037        1.77100056141520     
   17.9000000000000        50.8576304896873        1.77100326264778     
   18.0000000000000        50.8577080503985        1.77100596352611     
   18.1000000000000        50.8577856009469        1.77100866405056     
   18.2000000000000        50.8578631413424        1.77101136422145     
   18.3000000000000        50.8579406715949        1.77101406403913     
   18.4000000000000        50.8580181917141        1.77101676350394     
   18.5000000000000        50.8580957017099        1.77101946261623     
   18.6000000000000        50.8581732015922        1.77102216137634     
   18.7000000000000        50.8582506913705        1.77102485978460     
   18.8000000000000        50.8583281710549        1.77102755784137     
   18.9000000000000        50.8584056406551        1.77103025554697     
   19.0000000000000        50.8584831001808        1.77103295290175     
   19.1000000000000        50.8585605496418        1.77103564990605     
   19.2000000000000        50.8586379890480        1.77103834656021     
   19.3000000000000        50.8587154184090        1.77104104286458     
   19.4000000000000        50.8587928377347        1.77104373881948     
   19.5000000000000        50.8588702470348        1.77104643442527     
   19.6000000000000        50.8589476463191        1.77104912968228     
   19.7000000000000        50.8590250355974        1.77105182459085     
   19.8000000000000        50.8591024148793        1.77105451915132     
   19.9000000000000        50.8591797841746        1.77105721336403     
   20.0000000000000        50.8592571434931        1.77105990722931     
   20.1000000000000        50.8593344928445        1.77106260074752     
   20.2000000000000        50.8594118322384        1.77106529391898     
   20.3000000000000        50.8594891616848        1.77106798674404     
   20.4000000000000        50.8595664811931        1.77107067922303     
   20.5000000000000        50.8596437907733        1.77107337135629     
   20.6000000000000        50.8597210904349        1.77107606314417     
   20.7000000000000        50.8597983801877        1.77107875458698     
   20.8000000000000        50.8598756600414        1.77108144568509     
   20.9000000000000        50.8599529300057        1.77108413643882     
   21.0000000000000        50.8600301900902        1.77108682684850     
   21.1000000000000        50.8601074403047        1.77108951691449     
   21.2000000000000        50.8601846806588        1.77109220663711     
   21.3000000000000        50.8602619111621        1.77109489601670     
   21.4000000000000        50.8603391318245        1.77109758505360     
   21.5000000000000        50.8604163426555        1.77110027374814     
   21.6000000000000        50.8604935436648        1.77110296210067     
   21.7000000000000        50.8605707348620        1.77110565011151     
   21.8000000000000        50.8606479162568        1.77110833778100     
   21.9000000000000        50.8607250878589        1.77111102510949     
   22.0000000000000        50.8608022496779        1.77111371209730     
   22.1000000000000        50.8608794017233        1.77111639874477     
   22.2000000000000        50.8609565440049        1.77111908505223     
   22.3000000000000        50.8610336765323        1.77112177102003     
   22.4000000000000        50.8611107993151        1.77112445664849     
   22.5000000000000        50.8611879123629        1.77112714193795     
   22.6000000000000        50.8612650156853        1.77112982688875     
   22.7000000000000        50.8613421092919        1.77113251150121     
   22.8000000000000        50.8614191931924        1.77113519577569     
   22.9000000000000        50.8614962673963        1.77113787971250     
   23.0000000000000        50.8615733319132        1.77114056331198     
   23.1000000000000        50.8616503867527        1.77114324657447     
   23.2000000000000        50.8617274319244        1.77114592950030     
   23.3000000000000        50.8618044674378        1.77114861208980     
   23.4000000000000        50.8618814933027        1.77115129434331     
   23.5000000000000        50.8619585095284        1.77115397626116     
   23.6000000000000        50.8620355161245        1.77115665784368     
   23.7000000000000        50.8621125131007        1.77115933909121     
   23.8000000000000        50.8621895004665        1.77116202000408     
   23.9000000000000        50.8622664782314        1.77116470058262     
   24.0000000000000        50.8623434464050        1.77116738082716     
   24.1000000000000        50.8624204049968        1.77117006073804     
   24.2000000000000        50.8624973540163        1.77117274031558     
   24.3000000000000        50.8625742934731        1.77117541956013     
   24.4000000000000        50.8626512233768        1.77117809847200     
   24.5000000000000        50.8627281437367        1.77118077705154     
   24.6000000000000        50.8628050545625        1.77118345529907     
   24.7000000000000        50.8628819558636        1.77118613321493     
   24.8000000000000        50.8629588476496        1.77118881079945     
   24.9000000000000        50.8630357299299        1.77119148805295     
   25.0000000000000        50.8631126027141        1.77119416497577     
   25.1000000000000        50.8631894660116        1.77119684156824     
   25.2000000000000        50.8632663198320        1.77119951783068     
   25.3000000000000        50.8633431641847        1.77120219376344     
   25.4000000000000        50.8634199990791        1.77120486936683     
   25.5000000000000        50.8634968245249        1.77120754464120     
   25.6000000000000        50.8635736405313        1.77121021958686     
   25.7000000000000        50.8636504471080        1.77121289420415     
   25.8000000000000        50.8637272442643        1.77121556849340     
   25.9000000000000        50.8638040320097        1.77121824245493     
   26.0000000000000        50.8638808103537        1.77122091608908     
   26.1000000000000        50.8639575793056        1.77122358939617     
   26.2000000000000        50.8640343388751        1.77122626237654     
   26.3000000000000        50.8641110890713        1.77122893503051     
   26.4000000000000        50.8641878299039        1.77123160735841     
   26.5000000000000        50.8642645613823        1.77123427936057     
   26.6000000000000        50.8643412835157        1.77123695103732     
   26.7000000000000        50.8644179963138        1.77123962238898     
   26.8000000000000        50.8644946997858        1.77124229341588     
