 # applied field (T), theta (degree), phi (degree), abs for RE 1-2
     0.00000   180.00000   180.00000     3.40772   180.00000   180.00000     3.40772
     0.10000   178.82258   180.00000     3.40765   178.82258   180.00000     3.40765
     0.20000   177.69853   180.00000     3.40745   177.69853   180.00000     3.40745
     0.30000   176.52054   180.00000     3.40710   176.52054   180.00000     3.40710
     0.40000   175.34197   180.00000     3.40661   175.34197   180.00000     3.40661
     0.50000   174.16262   180.00000     3.40598   174.16262   180.00000     3.40598
     0.60000   172.98231   180.00000     3.40522   172.98231   180.00000     3.40522
     0.70000   171.80085   180.00000     3.40432   171.80085   180.00000     3.40432
     0.80000   170.61805   180.00000     3.40329   170.61805   180.00000     3.40329
     0.90000   169.37983   180.00000     3.40207   169.37983   180.00000     3.40207
     1.00000   168.19374   180.00000     3.40078   168.19374   180.00000     3.40078
     1.10000   166.95170   180.00000     3.39929   166.95170   180.00000     3.39929
     1.20000   165.70743   180.00000     3.39768   165.70743   180.00000     3.39768
     1.30000   164.40645   180.00000     3.39586   164.40645   180.00000     3.39586
     1.40000   163.10265   180.00000     3.39392   163.10265   180.00000     3.39392
     1.50000   161.79584   180.00000     3.39185   161.79584   180.00000     3.39185
     1.60000   160.48585   180.00000     3.38966   160.48585   180.00000     3.38966
     1.70000   159.11768   180.00000     3.38726   159.11768   180.00000     3.38726
     1.80000   157.74572   180.00000     3.38476   157.74572   180.00000     3.38476
     1.90000   156.31465   180.00000     3.38204   156.31465   180.00000     3.38204
     2.00000   154.82382   180.00000     3.37912   154.82382   180.00000     3.37912
     2.10000   153.32805   180.00000     3.37609   153.32805   180.00000     3.37609
     2.20000   151.77150   180.00000     3.37287   151.77150   180.00000     3.37287
     2.30000   150.15345   180.00000     3.36944   150.15345   180.00000     3.36944
     2.40000   148.47316   180.00000     3.36583   148.47316   180.00000     3.36583
     2.50000   146.72991   180.00000     3.36203   146.72991   180.00000     3.36203
     2.60000   144.92293   180.00000     3.35806   144.92293   180.00000     3.35806
     2.70000   143.05149   180.00000     3.35395   143.05149   180.00000     3.35395
     2.80000   141.05778   180.00000     3.34957   141.05778   180.00000     3.34957
     2.90000   138.94033   180.00000     3.34496   138.94033   180.00000     3.34496
     3.00000   136.64001   180.00000     3.34003   136.64001   180.00000     3.34003
     3.10000   134.21251   180.00000     3.33494   134.21251   180.00000     3.33494
     3.20000   131.59825   180.00000     3.32964   131.59825   180.00000     3.32964
     3.30000   128.67803   180.00000     3.32397   128.67803   180.00000     3.32397
     3.40000   125.44812   180.00000     3.31807   125.44812   180.00000     3.31807
     3.50000   121.72752   180.00000     3.31180   121.72752   180.00000     3.31180
     3.60000   117.33190   180.00000     3.30520   117.33190   180.00000     3.30520
     3.70000   111.77482   180.00000     3.29820   111.77482   180.00000     3.29820
     3.80000   103.59835   180.00000     3.29073   103.59835   180.00000     3.29073
     3.90000    90.00000   180.00000     3.28596    90.00000   180.00000     3.28596
     4.00000    90.00000   180.00000     3.28594    90.00000   180.00000     3.28594
     4.10000    90.00000   180.00000     3.28593    90.00000   180.00000     3.28593
     4.20000    90.00000   180.00000     3.28592    90.00000   180.00000     3.28592
     4.30000    90.00000   180.00000     3.28590    90.00000   180.00000     3.28590
     4.40000    90.00000   180.00000     3.28589    90.00000   180.00000     3.28589
     4.50000    90.00000   180.00000     3.28588    90.00000   180.00000     3.28588
     4.60000    90.00000   180.00000     3.28586    90.00000   180.00000     3.28586
     4.70000    90.00000   180.00000     3.28585    90.00000   180.00000     3.28585
     4.80000    90.00000   180.00000     3.28584    90.00000   180.00000     3.28584
     4.90000    90.00000   180.00000     3.28582    90.00000   180.00000     3.28582
     5.00000    90.00000   180.00000     3.28581    90.00000   180.00000     3.28581
     5.10000    90.00000   180.00000     3.28580    90.00000   180.00000     3.28580
     5.20000    90.00000   180.00000     3.28578    90.00000   180.00000     3.28578
     5.30000    90.00000   180.00000     3.28577    90.00000   180.00000     3.28577
     5.40000    90.00000   180.00000     3.28576    90.00000   180.00000     3.28576
     5.50000    90.00000   180.00000     3.28574    90.00000   180.00000     3.28574
     5.60000    90.00000   180.00000     3.28573    90.00000   180.00000     3.28573
     5.70000    90.00000   180.00000     3.28572    90.00000   180.00000     3.28572
     5.80000    90.00000   180.00000     3.28570    90.00000   180.00000     3.28570
     5.90000    90.00000   180.00000     3.28569    90.00000   180.00000     3.28569
     6.00000    90.00000   180.00000     3.28568    90.00000   180.00000     3.28568
     6.10000    90.00000   180.00000     3.28566    90.00000   180.00000     3.28566
     6.20000    90.00000   180.00000     3.28565    90.00000   180.00000     3.28565
     6.30000    90.00000   180.00000     3.28563    90.00000   180.00000     3.28563
     6.40000    90.00000   180.00000     3.28562    90.00000   180.00000     3.28562
     6.50000    90.00000   180.00000     3.28561    90.00000   180.00000     3.28561
     6.60000    90.00000   180.00000     3.28559    90.00000   180.00000     3.28559
     6.70000    90.00000   180.00000     3.28558    90.00000   180.00000     3.28558
     6.80000    90.00000   180.00000     3.28557    90.00000   180.00000     3.28557
     6.90000    90.00000   180.00000     3.28555    90.00000   180.00000     3.28555
     7.00000    90.00000   180.00000     3.28554    90.00000   180.00000     3.28554
     7.10000    90.00000   180.00000     3.28552    90.00000   180.00000     3.28552
     7.20000    90.00000   180.00000     3.28551    90.00000   180.00000     3.28551
     7.30000    90.00000   180.00000     3.28550    90.00000   180.00000     3.28550
     7.40000    90.00000   180.00000     3.28548    90.00000   180.00000     3.28548
     7.50000    90.00000   180.00000     3.28547    90.00000   180.00000     3.28547
     7.60000    90.00000   180.00000     3.28546    90.00000   180.00000     3.28546
     7.70000    90.00000   180.00000     3.28544    90.00000   180.00000     3.28544
     7.80000    90.00000   180.00000     3.28543    90.00000   180.00000     3.28543
     7.90000    90.00000   180.00000     3.28541    90.00000   180.00000     3.28541
     8.00000    90.00000   180.00000     3.28540    90.00000   180.00000     3.28540
     8.10000    90.00000   180.00000     3.28539    90.00000   180.00000     3.28539
     8.20000    90.00000   180.00000     3.28537    90.00000   180.00000     3.28537
     8.30000    90.00000   180.00000     3.28536    90.00000   180.00000     3.28536
     8.40000    90.00000   180.00000     3.28534    90.00000   180.00000     3.28534
     8.50000    90.00000   180.00000     3.28533    90.00000   180.00000     3.28533
     8.60000    90.00000   180.00000     3.28531    90.00000   180.00000     3.28531
     8.70000    90.00000   180.00000     3.28530    90.00000   180.00000     3.28530
     8.80000    90.00000   180.00000     3.28529    90.00000   180.00000     3.28529
     8.90000    90.00000   180.00000     3.28527    90.00000   180.00000     3.28527
     9.00000    90.00000   180.00000     3.28526    90.00000   180.00000     3.28526
     9.10000    90.00000   180.00000     3.28524    90.00000   180.00000     3.28524
     9.20000    90.00000   180.00000     3.28523    90.00000   180.00000     3.28523
     9.30000    90.00000   180.00000     3.28521    90.00000   180.00000     3.28521
     9.40000    90.00000   180.00000     3.28520    90.00000   180.00000     3.28520
     9.50000    90.00000   180.00000     3.28519    90.00000   180.00000     3.28519
     9.60000    90.00000   180.00000     3.28517    90.00000   180.00000     3.28517
     9.70000    90.00000   180.00000     3.28516    90.00000   180.00000     3.28516
     9.80000    90.00000   180.00000     3.28514    90.00000   180.00000     3.28514
     9.90000    90.00000   180.00000     3.28513    90.00000   180.00000     3.28513
    10.00000    90.00000   180.00000     3.28511    90.00000   180.00000     3.28511
    10.10000    90.00000   180.00000     3.28510    90.00000   180.00000     3.28510
    10.20000    90.00000   180.00000     3.28509    90.00000   180.00000     3.28509
    10.30000    90.00000   180.00000     3.28507    90.00000   180.00000     3.28507
    10.40000    90.00000   180.00000     3.28506    90.00000   180.00000     3.28506
    10.50000    90.00000   180.00000     3.28504    90.00000   180.00000     3.28504
    10.60000    90.00000   180.00000     3.28503    90.00000   180.00000     3.28503
    10.70000    90.00000   180.00000     3.28501    90.00000   180.00000     3.28501
    10.80000    90.00000   180.00000     3.28500    90.00000   180.00000     3.28500
    10.90000    90.00000   180.00000     3.28498    90.00000   180.00000     3.28498
    11.00000    90.00000   180.00000     3.28497    90.00000   180.00000     3.28497
    11.10000    90.00000   180.00000     3.28495    90.00000   180.00000     3.28495
    11.20000    90.00000   180.00000     3.28494    90.00000   180.00000     3.28494
    11.30000    90.00000   180.00000     3.28492    90.00000   180.00000     3.28492
    11.40000    90.00000   180.00000     3.28491    90.00000   180.00000     3.28491
    11.50000    90.00000   180.00000     3.28489    90.00000   180.00000     3.28489
    11.60000    90.00000   180.00000     3.28488    90.00000   180.00000     3.28488
    11.70000    90.00000   180.00000     3.28487    90.00000   180.00000     3.28487
    11.80000    90.00000   180.00000     3.28485    90.00000   180.00000     3.28485
    11.90000    90.00000   180.00000     3.28484    90.00000   180.00000     3.28484
    12.00000    90.00000   180.00000     3.28482    90.00000   180.00000     3.28482
    12.10000    90.00000   180.00000     3.28481    90.00000   180.00000     3.28481
    12.20000    90.00000   180.00000     3.28479    90.00000   180.00000     3.28479
    12.30000    90.00000   180.00000     3.28478    90.00000   180.00000     3.28478
    12.40000    90.00000   180.00000     3.28476    90.00000   180.00000     3.28476
    12.50000    90.00000   180.00000     3.28475    90.00000   180.00000     3.28475
    12.60000    90.00000   180.00000     3.28473    90.00000   180.00000     3.28473
    12.70000    90.00000   180.00000     3.28472    90.00000   180.00000     3.28472
    12.80000    90.00000   180.00000     3.28470    90.00000   180.00000     3.28470
    12.90000    90.00000   180.00000     3.28469    90.00000   180.00000     3.28469
    13.00000    90.00000   180.00000     3.28467    90.00000   180.00000     3.28467
    13.10000    90.00000   180.00000     3.28466    90.00000   180.00000     3.28466
    13.20000    90.00000   180.00000     3.28464    90.00000   180.00000     3.28464
    13.30000    90.00000   180.00000     3.28463    90.00000   180.00000     3.28463
    13.40000    90.00000   180.00000     3.28461    90.00000   180.00000     3.28461
    13.50000    90.00000   180.00000     3.28459    90.00000   180.00000     3.28459
    13.60000    90.00000   180.00000     3.28458    90.00000   180.00000     3.28458
    13.70000    90.00000   180.00000     3.28456    90.00000   180.00000     3.28456
    13.80000    90.00000   180.00000     3.28455    90.00000   180.00000     3.28455
    13.90000    90.00000   180.00000     3.28453    90.00000   180.00000     3.28453
    14.00000    90.00000   180.00000     3.28452    90.00000   180.00000     3.28452
    14.10000    90.00000   180.00000     3.28450    90.00000   180.00000     3.28450
    14.20000    90.00000   180.00000     3.28449    90.00000   180.00000     3.28449
    14.30000    90.00000   180.00000     3.28447    90.00000   180.00000     3.28447
    14.40000    90.00000   180.00000     3.28446    90.00000   180.00000     3.28446
    14.50000    90.00000   180.00000     3.28444    90.00000   180.00000     3.28444
    14.60000    90.00000   180.00000     3.28443    90.00000   180.00000     3.28443
    14.70000    90.00000   180.00000     3.28441    90.00000   180.00000     3.28441
    14.80000    90.00000   180.00000     3.28439    90.00000   180.00000     3.28439
    14.90000    90.00000   180.00000     3.28438    90.00000   180.00000     3.28438
    15.00000    90.00000   180.00000     3.28436    90.00000   180.00000     3.28436
    15.10000    90.00000   180.00000     3.28435    90.00000   180.00000     3.28435
    15.20000    90.00000   180.00000     3.28433    90.00000   180.00000     3.28433
    15.30000    90.00000   180.00000     3.28432    90.00000   180.00000     3.28432
    15.40000    90.00000   180.00000     3.28430    90.00000   180.00000     3.28430
    15.50000    90.00000   180.00000     3.28429    90.00000   180.00000     3.28429
    15.60000    90.00000   180.00000     3.28427    90.00000   180.00000     3.28427
    15.70000    90.00000   180.00000     3.28425    90.00000   180.00000     3.28425
    15.80000    90.00000   180.00000     3.28424    90.00000   180.00000     3.28424
    15.90000    90.00000   180.00000     3.28422    90.00000   180.00000     3.28422
    16.00000    90.00000   180.00000     3.28421    90.00000   180.00000     3.28421
    16.10000    90.00000   180.00000     3.28419    90.00000   180.00000     3.28419
    16.20000    90.00000   180.00000     3.28418    90.00000   180.00000     3.28418
    16.30000    90.00000   180.00000     3.28416    90.00000   180.00000     3.28416
    16.40000    90.00000   180.00000     3.28414    90.00000   180.00000     3.28414
    16.50000    90.00000   180.00000     3.28413    90.00000   180.00000     3.28413
    16.60000    90.00000   180.00000     3.28411    90.00000   180.00000     3.28411
    16.70000    90.00000   180.00000     3.28410    90.00000   180.00000     3.28410
    16.80000    90.00000   180.00000     3.28408    90.00000   180.00000     3.28408
    16.90000    90.00000   180.00000     3.28406    90.00000   180.00000     3.28406
    17.00000    90.00000   180.00000     3.28405    90.00000   180.00000     3.28405
    17.10000    90.00000   180.00000     3.28403    90.00000   180.00000     3.28403
    17.20000    90.00000   180.00000     3.28402    90.00000   180.00000     3.28402
    17.30000    90.00000   180.00000     3.28400    90.00000   180.00000     3.28400
    17.40000    90.00000   180.00000     3.28398    90.00000   180.00000     3.28398
    17.50000    90.00000   180.00000     3.28397    90.00000   180.00000     3.28397
    17.60000    90.00000   180.00000     3.28395    90.00000   180.00000     3.28395
    17.70000    90.00000   180.00000     3.28394    90.00000   180.00000     3.28394
    17.80000    90.00000   180.00000     3.28392    90.00000   180.00000     3.28392
    17.90000    90.00000   180.00000     3.28390    90.00000   180.00000     3.28390
    18.00000    90.00000   180.00000     3.28389    90.00000   180.00000     3.28389
    18.10000    90.00000   180.00000     3.28387    90.00000   180.00000     3.28387
    18.20000    90.00000   180.00000     3.28385    90.00000   180.00000     3.28385
    18.30000    90.00000   180.00000     3.28384    90.00000   180.00000     3.28384
    18.40000    90.00000   180.00000     3.28382    90.00000   180.00000     3.28382
    18.50000    90.00000   180.00000     3.28381    90.00000   180.00000     3.28381
    18.60000    90.00000   180.00000     3.28379    90.00000   180.00000     3.28379
    18.70000    90.00000   180.00000     3.28377    90.00000   180.00000     3.28377
    18.80000    90.00000   180.00000     3.28376    90.00000   180.00000     3.28376
    18.90000    90.00000   180.00000     3.28374    90.00000   180.00000     3.28374
    19.00000    90.00000   180.00000     3.28372    90.00000   180.00000     3.28372
    19.10000    90.00000   180.00000     3.28371    90.00000   180.00000     3.28371
    19.20000    90.00000   180.00000     3.28369    90.00000   180.00000     3.28369
    19.30000    90.00000   180.00000     3.28367    90.00000   180.00000     3.28367
    19.40000    90.00000   180.00000     3.28366    90.00000   180.00000     3.28366
    19.50000    90.00000   180.00000     3.28364    90.00000   180.00000     3.28364
    19.60000    90.00000   180.00000     3.28363    90.00000   180.00000     3.28363
    19.70000    90.00000   180.00000     3.28361    90.00000   180.00000     3.28361
    19.80000    90.00000   180.00000     3.28359    90.00000   180.00000     3.28359
    19.90000    90.00000   180.00000     3.28358    90.00000   180.00000     3.28358
    20.00000    90.00000   180.00000     3.28356    90.00000   180.00000     3.28356
    20.10000    90.00000   180.00000     3.28354    90.00000   180.00000     3.28354
    20.20000    90.00000   180.00000     3.28353    90.00000   180.00000     3.28353
    20.30000    90.00000   180.00000     3.28351    90.00000   180.00000     3.28351
    20.40000    90.00000   180.00000     3.28349    90.00000   180.00000     3.28349
    20.50000    90.00000   180.00000     3.28348    90.00000   180.00000     3.28348
    20.60000    90.00000   180.00000     3.28346    90.00000   180.00000     3.28346
    20.70000    90.00000   180.00000     3.28344    90.00000   180.00000     3.28344
    20.80000    90.00000   180.00000     3.28342    90.00000   180.00000     3.28342
    20.90000    90.00000   180.00000     3.28341    90.00000   180.00000     3.28341
    21.00000    90.00000   180.00000     3.28339    90.00000   180.00000     3.28339
    21.10000    90.00000   180.00000     3.28337    90.00000   180.00000     3.28337
    21.20000    90.00000   180.00000     3.28336    90.00000   180.00000     3.28336
    21.30000    90.00000   180.00000     3.28334    90.00000   180.00000     3.28334
    21.40000    90.00000   180.00000     3.28332    90.00000   180.00000     3.28332
    21.50000    90.00000   180.00000     3.28331    90.00000   180.00000     3.28331
    21.60000    90.00000   180.00000     3.28329    90.00000   180.00000     3.28329
    21.70000    90.00000   180.00000     3.28327    90.00000   180.00000     3.28327
    21.80000    90.00000   180.00000     3.28326    90.00000   180.00000     3.28326
    21.90000    90.00000   180.00000     3.28324    90.00000   180.00000     3.28324
    22.00000    90.00000   180.00000     3.28322    90.00000   180.00000     3.28322
    22.10000    90.00000   180.00000     3.28320    90.00000   180.00000     3.28320
    22.20000    90.00000   180.00000     3.28319    90.00000   180.00000     3.28319
    22.30000    90.00000   180.00000     3.28317    90.00000   180.00000     3.28317
    22.40000    90.00000   180.00000     3.28315    90.00000   180.00000     3.28315
    22.50000    90.00000   180.00000     3.28314    90.00000   180.00000     3.28314
    22.60000    90.00000   180.00000     3.28312    90.00000   180.00000     3.28312
    22.70000    90.00000   180.00000     3.28310    90.00000   180.00000     3.28310
    22.80000    90.00000   180.00000     3.28308    90.00000   180.00000     3.28308
    22.90000    90.00000   180.00000     3.28307    90.00000   180.00000     3.28307
    23.00000    90.00000   180.00000     3.28305    90.00000   180.00000     3.28305
    23.10000    90.00000   180.00000     3.28303    90.00000   180.00000     3.28303
    23.20000    90.00000   180.00000     3.28301    90.00000   180.00000     3.28301
    23.30000    90.00000   180.00000     3.28300    90.00000   180.00000     3.28300
