 # applied field (T), magnetization (2 f.u.), magnetization (T)
 # T=0 1st order approx.
 # K1(0) (K, MJ/m^3)   46.8508835692452        3.71096931396659     
 # K2(0) (K, MJ/m^3)  -13.9981912906353       -1.10877008869651     
 # from A20
 # K1(0) from A20 (K, MJ/m^3)   123.411802662648        4.88760699662688     
  0.000000000000000E+000  2.845131690983910E-015  9.511218585565253E-017
  0.100000000000000       0.323255973801427       1.080638283162166E-002
  0.200000000000000       0.646497464755822       2.161228150455115E-002
  0.300000000000000       0.969709989923125       3.241721185698634E-002
  0.400000000000000        1.29287906617640       4.322068972087785E-002
  0.500000000000000        1.61599021010629       5.402223091873520E-002
  0.600000000000000        1.93902893792325       6.482135126035812E-002
  0.700000000000000        2.26198076535641       7.561756653945589E-002
  0.800000000000000        2.58483120754853       8.641039253013494E-002
  0.900000000000000        2.90756577894627       9.719934498323249E-002
   1.00000000000000        3.23016999318508       0.107983939622466     
   1.10000000000000        3.55262936296793       0.118763692140381     
   1.20000000000000        3.87492939993735       0.129538118194072     
   1.30000000000000        4.19705561454013       0.140306733400661     
   1.40000000000000        4.51899351588418       0.151069053332511     
   1.50000000000000        4.84072861158690       0.161824593512157     
   1.60000000000000        5.16224640761487       0.172572869406950     
   1.70000000000000        5.48353240811428       0.183313396423381     
   1.80000000000000        5.80457211523176       0.194045689901102     
   1.90000000000000        6.17107444643418       0.206297789848644     
   2.00000000000000        6.49153762549819       0.217010810108345     
   2.10000000000000        6.81170893536783       0.227714073239002     
   2.20000000000000        7.13157386783121       0.238407094233978     
   2.30000000000000        7.49666034233097       0.250611862373901     
   2.40000000000000        7.81581997330243       0.261281305280454     
   2.50000000000000        8.18006250182402       0.273457860474389     
   2.60000000000000        8.49845018187468       0.284101497215385     
   2.70000000000000        8.86177259197670       0.296247293033784     
   2.80000000000000        9.22457316836831       0.308375644055161     
   2.90000000000000        9.54164770533171       0.318975382684246     
   3.00000000000000        9.90341127737530       0.331069066856776     
   3.10000000000000        10.2645906505437       0.343143221377245     
   3.20000000000000        10.6251641169000       0.355197120553644     
   3.30000000000000        10.9851099585640       0.367230038361561     
   3.40000000000000        11.3444064471368       0.379241248424954     
   3.50000000000000        11.7030318431287       0.391230023997007     
   3.60000000000000        12.1055879851473       0.404687395660449     
   3.70000000000000        12.4627152320100       0.416626088405449     
   3.80000000000000        12.8635310073839       0.430025279958530     
   3.90000000000000        13.2190617899674       0.441910603220595     
   4.00000000000000        13.6180265500981       0.455247915702706     
   4.10000000000000        14.0159666125680       0.468550972746071     
   4.20000000000000        14.4128509077855       0.481818735700434     
   4.30000000000000        14.8086483425004       0.495050165124628     
   4.40000000000000        15.2470515435500       0.509705896832965     
   4.50000000000000        15.6840322816031       0.524314075886592     
   4.60000000000000        16.0761162578558       0.537421365133887     
   4.70000000000000        16.5535554126054       0.553382061000869     
   4.80000000000000        16.9860122350224       0.567839006455670     
   4.90000000000000        17.4598204153038       0.583678319569244     
   5.00000000000000        17.9316438389574       0.599451282663995     
   5.10000000000000        18.4014254220711       0.615155987436103     
   5.20000000000000        18.9114720878701       0.632206745904072     
   5.30000000000000        19.4189472204080       0.649171538527211     
   5.40000000000000        19.9656819466612       0.667448771550176     
   5.50000000000000        20.5508546437357       0.687010978283235     
   5.60000000000000        21.1322002001411       0.706445244465854     
   5.70000000000000        46.4790531461020        1.55378549092679     
   5.80000000000000        46.4790966282611        1.55378694452671     
   5.90000000000000        46.4791401156081        1.55378839830006     
   6.00000000000000        46.4791836081439        1.55378985224687     
   6.10000000000000        46.4792271058696        1.55379130636718     
   6.20000000000000        46.4792706087862        1.55379276066102     
   6.30000000000000        46.4793141168947        1.55379421512842     
   6.40000000000000        46.4793576301961        1.55379566976942     
   6.50000000000000        46.4794011486913        1.55379712458405     
   6.60000000000000        46.4794446723813        1.55379857957234     
   6.70000000000000        46.4794882012672        1.55380003473433     
   6.80000000000000        46.4795317353500        1.55380149007005     
   6.90000000000000        46.4795752746307        1.55380294557953     
   7.00000000000000        46.4796188191101        1.55380440126281     
   7.10000000000000        46.4796623687895        1.55380585711991     
   7.20000000000000        46.4797059236697        1.55380731315089     
   7.30000000000000        46.4797494837517        1.55380876935575     
   7.40000000000000        46.4797930490366        1.55381022573455     
   7.50000000000000        46.4798366195253        1.55381168228731     
   7.60000000000000        46.4798801952189        1.55381313901407     
   7.70000000000000        46.4799237761183        1.55381459591486     
   7.80000000000000        46.4799673622246        1.55381605298971     
   7.90000000000000        46.4800109535387        1.55381751023866     
   8.00000000000000        46.4800545500616        1.55381896766174     
   8.10000000000000        46.4800981517944        1.55382042525899     
   8.20000000000000        46.4801417587380        1.55382188303043     
   8.30000000000000        46.4801853708935        1.55382334097610     
   8.40000000000000        46.4802289882618        1.55382479909604     
   8.50000000000000        46.4802726108440        1.55382625739027     
   8.60000000000000        46.4803162386410        1.55382771585884     
   8.70000000000000        46.4803598716538        1.55382917450177     
   8.80000000000000        46.4804035098835        1.55383063331910     
   8.90000000000000        46.4804471533310        1.55383209231086     
   9.00000000000000        46.4804908019973        1.55383355147708     
   9.10000000000000        46.4805344558835        1.55383501081780     
   9.20000000000000        46.4805781149906        1.55383647033306     
   9.30000000000000        46.4806217793195        1.55383793002288     
   9.40000000000000        46.4806654488712        1.55383938988730     
   9.50000000000000        46.4807091236468        1.55384084992635     
   9.60000000000000        46.4807528036473        1.55384231014006     
   9.70000000000000        46.4807964888735        1.55384377052848     
   9.80000000000000        46.4808401793267        1.55384523109163     
   9.90000000000000        46.4808838750077        1.55384669182954     
   10.0000000000000        46.4809275759175        1.55384815274225     
   10.1000000000000        46.4809712820573        1.55384961382980     
   10.2000000000000        46.4810149934278        1.55385107509222     
   10.3000000000000        46.4810587100303        1.55385253652953     
   10.4000000000000        46.4811024318656        1.55385399814178     
   10.5000000000000        46.4811461589348        1.55385545992899     
   10.6000000000000        46.4811898912388        1.55385692189121     
   10.7000000000000        46.4812336287787        1.55385838402846     
   10.8000000000000        46.4812773715555        1.55385984634077     
   10.9000000000000        46.4813211195702        1.55386130882819     
   11.0000000000000        46.4813648728238        1.55386277149075     
   11.1000000000000        46.4814086313172        1.55386423432847     
   11.2000000000000        46.4814523950516        1.55386569734139     
   11.3000000000000        46.4814961640278        1.55386716052955     
   11.4000000000000        46.4815399382469        1.55386862389298     
   11.5000000000000        46.4815837177100        1.55387008743171     
   11.6000000000000        46.4816275024179        1.55387155114578     
   11.7000000000000        46.4816712923718        1.55387301503522     
   11.8000000000000        46.4817150875725        1.55387447910006     
   11.9000000000000        46.4817588880212        1.55387594334033     
   12.0000000000000        46.4818026937188        1.55387740775608     
   12.1000000000000        46.4818465046663        1.55387887234733     
   12.2000000000000        46.4818903208648        1.55388033711412     
   12.3000000000000        46.4819341423152        1.55388180205648     
   12.4000000000000        46.4819779690186        1.55388326717445     
   12.5000000000000        46.4820218009759        1.55388473246805     
   12.6000000000000        46.4820656381881        1.55388619793733     
   12.7000000000000        46.4821094806563        1.55388766358231     
   12.8000000000000        46.4821533283815        1.55388912940303     
   12.9000000000000        46.4821971813646        1.55389059539952     
   13.0000000000000        46.4822410396068        1.55389206157182     
   13.1000000000000        46.4822849031089        1.55389352791996     
   13.2000000000000        46.4823287718719        1.55389499444398     
   13.3000000000000        46.4823726458970        1.55389646114390     
   13.4000000000000        46.4824165251851        1.55389792801976     
   13.5000000000000        46.4824604097372        1.55389939507160     
   13.6000000000000        46.4825042995543        1.55390086229945     
   13.7000000000000        46.4825481946374        1.55390232970333     
   13.8000000000000        46.4825920949876        1.55390379728330     
   13.9000000000000        46.4826360006058        1.55390526503937     
   14.0000000000000        46.4826799114930        1.55390673297159     
   14.1000000000000        46.4827238276503        1.55390820107998     
   14.2000000000000        46.4827677490786        1.55390966936458     
   14.3000000000000        46.4828116757790        1.55391113782543     
   14.4000000000000        46.4828556077525        1.55391260646255     
   14.5000000000000        46.4828995450001        1.55391407527599     
   14.6000000000000        46.4829434875227        1.55391554426577     
   14.7000000000000        46.4829874353214        1.55391701343193     
   14.8000000000000        46.4830313883973        1.55391848277450     
   14.9000000000000        46.4830753467512        1.55391995229352     
   15.0000000000000        46.4831193103843        1.55392142198902     
   15.1000000000000        46.4831632792975        1.55392289186103     
   15.2000000000000        46.4832072534918        1.55392436190959     
   15.3000000000000        46.4832512329683        1.55392583213473     
   15.4000000000000        46.4832952177279        1.55392730253649     
   15.5000000000000        46.4833392077718        1.55392877311489     
   15.6000000000000        46.4833832031007        1.55393024386998     
   15.7000000000000        46.4834272037159        1.55393171480178     
   15.8000000000000        46.4834712096183        1.55393318591033     
   15.9000000000000        46.4835152208088        1.55393465719567     
   16.0000000000000        46.4835592372886        1.55393612865783     
   16.1000000000000        46.4836032590586        1.55393760029683     
   16.2000000000000        46.4836472861198        1.55393907211272     
   16.3000000000000        46.4836913184733        1.55394054410553     
   16.4000000000000        46.4837353561200        1.55394201627529     
   16.5000000000000        46.4837793990610        1.55394348862203     
   16.6000000000000        46.4838234472973        1.55394496114580     
   16.7000000000000        46.4838675008298        1.55394643384662     
   16.8000000000000        46.4839115596597        1.55394790672453     
   16.9000000000000        46.4839556237878        1.55394937977956     
   17.0000000000000        46.4839996932153        1.55395085301174     
   17.1000000000000        46.4840437679431        1.55395232642112     
   17.2000000000000        46.4840878479723        1.55395380000771     
   17.3000000000000        46.4841319333038        1.55395527377157     
   17.4000000000000        46.4841760239386        1.55395674771271     
   17.5000000000000        46.4842201198779        1.55395822183118     
   17.6000000000000        46.4842642211225        1.55395969612700     
   17.7000000000000        46.4843083276735        1.55396117060022     
   17.8000000000000        46.4843524395320        1.55396264525086     
   17.9000000000000        46.4843965566988        1.55396412007897     
   18.0000000000000        46.4844406791752        1.55396559508456     
   18.1000000000000        46.4844848069619        1.55396707026769     
   18.2000000000000        46.4845289400601        1.55396854562837     
   18.3000000000000        46.4845730784708        1.55397002116665     
   18.4000000000000        46.4846172221950        1.55397149688256     
   18.5000000000000        46.4846613712337        1.55397297277613     
   18.6000000000000        46.4847055255879        1.55397444884740     
   18.7000000000000        46.4847496852586        1.55397592509640     
   18.8000000000000        46.4847938502469        1.55397740152316     
   18.9000000000000        46.4848380205538        1.55397887812772     
   19.0000000000000        46.4848821961802        1.55398035491012     
   19.1000000000000        46.4849263771271        1.55398183187038     
   19.2000000000000        46.4849705633957        1.55398330900854     
   19.3000000000000        46.4850147549869        1.55398478632463     
   19.4000000000000        46.4850589519018        1.55398626381869     
   19.5000000000000        46.4851031541412        1.55398774149076     
   19.6000000000000        46.4851473617064        1.55398921934085     
   19.7000000000000        46.4851915745982        1.55399069736902     
   19.8000000000000        46.4852357928177        1.55399217557530     
   19.9000000000000        46.4852800163658        1.55399365395970     
   20.0000000000000        46.4853242452437        1.55399513252229     
   20.1000000000000        46.4853684794524        1.55399661126307     
   20.2000000000000        46.4854127189928        1.55399809018210     
   20.3000000000000        46.4854569638659        1.55399956927940     
   20.4000000000000        46.4855012140729        1.55400104855500     
   20.5000000000000        46.4855454696146        1.55400252800895     
   20.6000000000000        46.4855897304921        1.55400400764127     
   20.7000000000000        46.4856339967065        1.55400548745200     
   20.8000000000000        46.4856782682587        1.55400696744118     
   20.9000000000000        46.4857225451498        1.55400844760883     
   21.0000000000000        46.4857668273807        1.55400992795499     
   21.1000000000000        46.4858111149526        1.55401140847970     
   21.2000000000000        46.4858554078663        1.55401288918298     
   21.3000000000000        46.4858997061230        1.55401437006488     
   21.4000000000000        46.4859440097236        1.55401585112543     
   21.5000000000000        46.4859883186692        1.55401733236466     
   21.6000000000000        46.4860326329608        1.55401881378260     
   21.7000000000000        46.4860769525994        1.55402029537929     
   21.8000000000000        46.4861212775860        1.55402177715477     
   21.9000000000000        46.4861656079216        1.55402325910906     
   22.0000000000000        46.4862099436073        1.55402474124220     
   22.1000000000000        46.4862542846440        1.55402622355423     
   22.2000000000000        46.4862986310329        1.55402770604518     
   22.3000000000000        46.4863429827748        1.55402918871508     
   22.4000000000000        46.4863873398709        1.55403067156397     
   22.5000000000000        46.4864317023221        1.55403215459188     
   22.6000000000000        46.4864760701295        1.55403363779884     
   22.7000000000000        46.4865204432940        1.55403512118490     
   22.8000000000000        46.4865648218168        1.55403660475008     
   22.9000000000000        46.4866092056988        1.55403808849441     
   23.0000000000000        46.4866535949410        1.55403957241794     
   23.1000000000000        46.4866979895445        1.55404105652069     
   23.2000000000000        46.4867423895102        1.55404254080271     
   23.3000000000000        46.4867867948393        1.55404402526401     
   23.4000000000000        46.4868312055327        1.55404550990465     
   23.5000000000000        46.4868756215914        1.55404699472465     
   23.6000000000000        46.4869200430165        1.55404847972404     
   23.7000000000000        46.4869644698089        1.55404996490287     
   23.8000000000000        46.4870089019698        1.55405145026116     
   23.9000000000000        46.4870533395001        1.55405293579895     
   24.0000000000000        46.4870977824008        1.55405442151627     
   24.1000000000000        46.4871422306730        1.55405590741315     
   24.2000000000000        46.4871866843177        1.55405739348964     
   24.3000000000000        46.4872311433358        1.55405887974577     
   24.4000000000000        46.4872756077286        1.55406036618156     
   24.5000000000000        46.4873200774968        1.55406185279706     
   24.6000000000000        46.4873645526417        1.55406333959229     
   24.7000000000000        46.4874090331641        1.55406482656730     
   24.8000000000000        46.4874535190651        1.55406631372211     
   24.9000000000000        46.4874980103458        1.55406780105677     
   25.0000000000000        46.4875425070071        1.55406928857129     
   25.1000000000000        46.4875870090502        1.55407077626573     
   25.2000000000000        46.4876315164759        1.55407226414011     
   25.3000000000000        46.4876760292853        1.55407375219447     
   25.4000000000000        46.4877205474795        1.55407524042883     
   25.5000000000000        46.4877650710595        1.55407672884324     
   25.6000000000000        46.4878096000263        1.55407821743774     
   25.7000000000000        46.4878541343809        1.55407970621234     
   25.8000000000000        46.4878986741243        1.55408119516710     
   25.9000000000000        46.4879432192576        1.55408268430203     
   26.0000000000000        46.4879877697818        1.55408417361718     
   26.1000000000000        46.4880323256979        1.55408566311259     
   26.2000000000000        46.4880768870070        1.55408715278827     
   26.3000000000000        46.4881214537100        1.55408864264428     
   26.4000000000000        46.4881660258080        1.55409013268064     
   26.5000000000000        46.4882106033020        1.55409162289739     
   26.6000000000000        46.4882551861930        1.55409311329456     
   26.7000000000000        46.4882997744822        1.55409460387218     
   26.8000000000000        46.4883443681703        1.55409609463030     
