 # applied field (T), magnetization (2 f.u.), magnetization (T)
  0.000000000000000E+000 -1.317450733885082E-016 -4.404211567922546E-018
  0.100000000000000       0.248292647280570       8.300373754079091E-003
  0.200000000000000       0.496572778398791       1.660032909534332E-002
  0.300000000000000       0.744829117680378       2.489948908024673E-002
  0.400000000000000        1.02844032932104       3.438055540761419E-002
  0.500000000000000        1.27660532535429       4.267666180591542E-002
  0.600000000000000        1.52470891289715       5.097071533061201E-002
  0.700000000000000        1.77273915328421       5.926231687449632E-002
  0.800000000000000        2.02068411279416       6.755106749564133E-002
  0.900000000000000        2.26853186241857       7.583656840967111E-002
   1.00000000000000        2.55158643722416       8.529902647848966E-002
   1.10000000000000        2.79918576319528       9.357622263926045E-002
   1.20000000000000        3.04665042481147       0.101848916997463     
   1.30000000000000        3.29396851639141       0.110116711548541     
   1.40000000000000        3.54112813918502       0.118379208519649     
   1.50000000000000        3.78811740191864       0.126636010387877     
   1.60000000000000        4.07010154877980       0.136062684263676     
   1.70000000000000        4.31668579530505       0.144305946520713     
   1.80000000000000        4.56306236662821       0.152542266237099     
   1.90000000000000        4.80921940831267       0.160771247121381     
   2.00000000000000        5.05514507622989       0.168992493226699     
   2.10000000000000        5.30082753710609       0.177205608969067     
   2.20000000000000        5.58122939245940       0.186579387154853     
   2.30000000000000        5.82635096338661       0.194773752457921     
   2.40000000000000        6.07119221627591       0.202958746784804     
   2.50000000000000        6.31574136857306       0.211133976247060     
   2.60000000000000        6.59478848188060       0.220462465676037     
   2.70000000000000        6.83867216403010       0.228615448603777     
   2.80000000000000        7.08222680832266       0.236757431861483     
   2.90000000000000        7.32544069200342       0.244888023559796     
   3.00000000000000        7.60290259310602       0.254163519660437     
   3.10000000000000        7.84534695701717       0.262268386466092     
   3.20000000000000        8.08741382490378       0.270360633654821     
   3.30000000000000        8.32909154263745       0.278439871631431     
   3.40000000000000        8.60473902034176       0.287654711919189     
   3.50000000000000        8.84554377768932       0.295704767003931     
   3.60000000000000        9.08592287882863       0.303740592486396     
   3.70000000000000        9.36004189735434       0.312904336688187     
   3.80000000000000        9.59947002101696       0.320908371182982     
   3.90000000000000        9.83843617482074       0.328896962117392     
   4.00000000000000        10.1108963370491       0.338005251083503     
   4.10000000000000        10.3488339259486       0.345959457297988     
   4.20000000000000        10.5862734401968       0.353897012976067     
   4.30000000000000        10.8569450989064       0.362945512625708     
   4.40000000000000        11.0932789266065       0.370846105422669     
   4.50000000000000        11.3290788010474       0.378728848268504     
   4.60000000000000        11.5978331210034       0.387713251665423     
   4.70000000000000        11.8324506910915       0.395556470312185     
   4.80000000000000        12.0998243596598       0.404494718808159     
   4.90000000000000        12.3332076966020       0.412296677286636     
   5.00000000000000        12.5991415268211       0.421186792273320     
   5.10000000000000        12.8312389667856       0.428945763471905     
   5.20000000000000        13.0956740812623       0.437785776689770     
   5.30000000000000        13.3264342375053       0.445500042759850     
   5.40000000000000        13.5893120819233       0.454287996749765     
   5.50000000000000        13.8186838562871       0.461955849490103     
   5.60000000000000        14.0799462120885       0.470689798017271     
   5.70000000000000        14.3078788056954       0.478309539231499     
   5.80000000000000        14.5674678018054       0.486987547677415     
   5.90000000000000        14.8261408801942       0.495634937176302     
   6.00000000000000        15.0517688485043       0.503177635225798     
   6.10000000000000        15.3086805330560       0.511766141679475     
   6.20000000000000        15.5646295831921       0.520322467456334     
   6.30000000000000        15.7878353822970       0.527784192871644     
   6.40000000000000        16.0419358816807       0.536278721964966     
   6.50000000000000        16.2950275064469       0.544739524580730     
   6.60000000000000        16.5156947921148       0.552116387997358     
   6.70000000000000        16.7668516187967       0.560512510698459     
   6.80000000000000        17.0169538238833       0.568873377609640     
   6.90000000000000        17.2659856146238       0.577198460782394     
   7.00000000000000        17.5139312605206       0.585487234349315     
   7.10000000000000        17.7607750939807       0.593739174545891     
   7.20000000000000        17.9758986032724       0.600930710622239     
   7.30000000000000        18.2206343532880       0.609112178009063     
   7.40000000000000        18.4642236009281       0.617255318049788     
   7.50000000000000        18.7066509283711       0.625359615329703     
   7.60000000000000        18.9479009837391       0.633424556638592     
   7.70000000000000        19.1879584816881       0.641449630990450     
   7.80000000000000        19.4268082039853       0.649434329642781     
   7.90000000000000        19.6940016615711       0.658366553721492     
   8.00000000000000        19.9302348309921       0.666263781532227     
   8.10000000000000        20.1652131081061       0.674119058543035     
   8.20000000000000        20.3989215573428       0.681931885460776     
   8.30000000000000        20.6313453130279       0.689701765328920     
   8.40000000000000        20.8912190500068       0.698389292605380     
   8.50000000000000        21.1208639933111       0.706066277328999     
   8.60000000000000        21.3491782454248       0.713698777311107     
   8.70000000000000        21.6043747106866       0.722229944325487     
   8.80000000000000        21.8298131529266       0.729766306556200     
   8.90000000000000        22.0817380476483       0.738188105618917     
   9.00000000000000        22.3042355815973       0.745626153871110     
   9.10000000000000        22.5528160717553       0.753936150155260     
   9.20000000000000        22.7723083041476       0.761273731774885     
   9.30000000000000        23.0174723530534       0.769469517108318     
   9.40000000000000        23.2607989202035       0.777603875792571     
   9.50000000000000        23.4755719795146       0.784783696395856     
   9.60000000000000        23.7153734929924       0.792800213237816     
   9.70000000000000        23.9532805293545       0.800753398087061     
   9.80000000000000        24.1892735959283       0.808642599307427     
   9.90000000000000        24.4233333221824       0.816467169345906     
   10.0000000000000        24.6554404601710       0.824226464747506     
   10.1000000000000        24.8855758849750       0.831919846169987     
   10.2000000000000        25.1137205951480       0.839546678398781     
   10.3000000000000        25.3648173368997       0.847940792472627     
   10.4000000000000        25.5886978083680       0.855425072050696     
   10.5000000000000        25.8105292455953       0.862840852822126     
   10.6000000000000        26.0545440087948       0.870998217763264     
   10.7000000000000        26.2959816012813       0.879069428400681     
   10.8000000000000        26.5110859204321       0.886260322954439     
   10.9000000000000        26.7475580030089       0.894165537584394     
   11.0000000000000        26.9813810139736       0.901982194277890     
   11.1000000000000        27.2125305488093       0.909709477196785     
   11.2000000000000        27.4409824069647       0.917346577321464     
   11.3000000000000        27.6667125953924       0.924892692569134     
   11.4000000000000        27.8896973324978       0.932347027925826     
   11.5000000000000        28.1099130524568       0.939708795590728     
   11.6000000000000        28.3488915240670       0.947697798306955     
   11.7000000000000        28.5844609972419       0.955572838884347     
   11.8000000000000        28.7956605663252       0.962633198420934     
   11.9000000000000        29.0246375421081       0.970287853123332     
   12.0000000000000        29.2501180000215       0.977825619929643     
   12.1000000000000        29.4720725569291       0.985245516567469     
   12.2000000000000        29.7101210766976       0.993203431178815     
   12.3000000000000        29.9246102494518        1.00037376151104     
   12.4000000000000        30.1544474993894        1.00805717500711     
   12.5000000000000        30.3799479280934        1.01559560943297     
   12.6000000000000        30.6010761165165        1.02298788073692     
   12.7000000000000        30.8177972768849        1.03023282597061     
   12.8000000000000        31.0475411182960        1.03791311683825     
   12.9000000000000        31.2720307652662        1.04541776103203     
   13.0000000000000        31.4912246911563        1.05274537032469     
   13.1000000000000        31.7212887469767        1.06043636589626     
   13.2000000000000        31.9293558329662        1.06739200714682     
   13.3000000000000        32.1626564506819        1.07519120033803     
   13.4000000000000        32.3738659407347        1.08225189153065     
   13.5000000000000        32.5930652348468        1.08957968028190     
   13.6000000000000        32.8187328546271        1.09712370387215     
   13.7000000000000        33.0359514282943        1.10438527753336     
   13.8000000000000        33.2446619078704        1.11136242730340     
   13.9000000000000        33.4691887474859        1.11886831483991     
   14.0000000000000        33.6828015238034        1.12600934741378     
   14.1000000000000        33.9072334379280        1.13351206161003     
   14.2000000000000        34.1180119816984        1.14055834635425     
   14.3000000000000        34.3339717860613        1.14777783960829     
   14.4000000000000        34.5504591464891        1.15501496895652     
   14.5000000000000        34.7623554444434        1.16209862000052     
   14.6000000000000        34.9774100699683        1.16928785330626     
   14.7000000000000        35.1935781651332        1.17651430968034     
   14.8000000000000        35.4065618574301        1.18363431210067     
   14.9000000000000        35.5970202814241        1.19000129928727     
   15.0000000000000        35.5972522360805        1.19000905348524     
   15.1000000000000        35.5974818746209        1.19001673025592     
   15.2000000000000        35.5977114998552        1.19002440658178     
   15.3000000000000        35.5979411117478        1.19003208246162     
   15.4000000000000        35.5981707102628        1.19003975789425     
   15.5000000000000        35.5984002953643        1.19004743287848     
   15.6000000000000        35.5986298670161        1.19005510741308     
   15.7000000000000        35.5988594251821        1.19006278149686     
   15.8000000000000        35.5990889698264        1.19007045512860     
   15.9000000000000        35.5993185009127        1.19007812830711     
   16.0000000000000        35.5995480184055        1.19008580103119     
   16.1000000000000        35.5997775222688        1.19009347329964     
   16.2000000000000        35.6000070124673        1.19010114511127     
   16.3000000000000        35.6002364889659        1.19010881646493     
   16.4000000000000        35.6004659517298        1.19011648735943     
   16.5000000000000        35.6006954007245        1.19012415779363     
   16.6000000000000        35.6009248359159        1.19013182776639     
   16.7000000000000        35.6011542572705        1.19013949727658     
   16.8000000000000        35.6013836647551        1.19014716632311     
   16.9000000000000        35.6016130583371        1.19015483490488     
   17.0000000000000        35.6018424379844        1.19016250302081     
   17.1000000000000        35.6020718036654        1.19017017066985     
   17.2000000000000        35.6023011553491        1.19017783785096     
   17.3000000000000        35.6025304930051        1.19018550456313     
   17.4000000000000        35.6027598166035        1.19019317080536     
   17.5000000000000        35.6029891261152        1.19020083657667     
   17.6000000000000        35.6032184215115        1.19020850187611     
   17.7000000000000        35.6034477027644        1.19021616670273     
   17.8000000000000        35.6036769698465        1.19022383105563     
   17.9000000000000        35.6039062227311        1.19023149493391     
   18.0000000000000        35.6041354613920        1.19023915833669     
   18.1000000000000        35.6043646858036        1.19024682126313     
   18.2000000000000        35.6045938959411        1.19025448371238     
   18.3000000000000        35.6048230917800        1.19026214568363     
   18.4000000000000        35.6050522732966        1.19026980717609     
   18.5000000000000        35.6052814404677        1.19027746818899     
   18.6000000000000        35.6055105932707        1.19028512872156     
   18.7000000000000        35.6057397316833        1.19029278877306     
   18.8000000000000        35.6059688556840        1.19030044834278     
   18.9000000000000        35.6061979652517        1.19030810743000     
   19.0000000000000        35.6064270603656        1.19031576603404     
   19.1000000000000        35.6066561410055        1.19032342415421     
   19.2000000000000        35.6068852071517        1.19033108178986     
   19.3000000000000        35.6071142587846        1.19033873894034     
   19.4000000000000        35.6073432958851        1.19034639560500     
   19.5000000000000        35.6075723184344        1.19035405178321     
   19.6000000000000        35.6078013264139        1.19036170747436     
   19.7000000000000        35.6080303198054        1.19036936267784     
   19.8000000000000        35.6082592985907        1.19037701739303     
   19.9000000000000        35.6084882627519        1.19038467161935     
   20.0000000000000        35.6087172122711        1.19039232535618     
   20.1000000000000        35.6089461471305        1.19039997860294     
   20.2000000000000        35.6091750673123        1.19040763135903     
   20.3000000000000        35.6094039727988        1.19041528362386     
   20.4000000000000        35.6096328635720        1.19042293539683     
   20.5000000000000        35.6098617396139        1.19043058667733     
   20.6000000000000        35.6100906009064        1.19043823746477     
   20.7000000000000        35.6103194474309        1.19044588775851     
   20.8000000000000        35.6105482791688        1.19045353755794     
   20.9000000000000        35.6107770961008        1.19046118686241     
   21.0000000000000        35.6110058982073        1.19046883567126     
   21.1000000000000        35.6112346854681        1.19047648398383     
   21.2000000000000        35.6114634578625        1.19048413179942     
   21.3000000000000        35.6116922153688        1.19049177911730     
   21.4000000000000        35.6119209579644        1.19049942593672     
   21.5000000000000        35.6121496856256        1.19050707225689     
   21.6000000000000        35.6123783983273        1.19051471807696     
   21.7000000000000        35.6126070960425        1.19052236339604     
   21.8000000000000        35.6128357787420        1.19053000821314     
   21.9000000000000        35.6130644463934        1.19053765252719     
   22.0000000000000        35.6132930989604        1.19054529633697     
   22.1000000000000        35.6135217364004        1.19055293964106     
   22.2000000000000        35.6137503586627        1.19056058243776     
   22.3000000000000        35.6139789656828        1.19056822472492     
   22.4000000000000        35.6142075573755        1.19057586649968     
   22.5000000000000        35.6144361336192        1.19058350775800     
   22.6000000000000        35.6146646942280        1.19059114849363     
   22.7000000000000        35.6148932388903        1.19059878869618     
   22.8000000000000        35.6151217670320        1.19060642834645     
   22.9000000000000        35.6153502774831        1.19061406740532     
   23.0000000000000        35.6155787702626        1.19062170587344     
   23.1000000000000        35.6158072352553        1.19062934341265     
   23.2000000000000        35.6160356700313        1.19063697994172     
   23.3000000000000        35.6162640764265        1.19064461552203     
   23.4000000000000        35.6164924602130        1.19065225034653     
   23.5000000000000        35.6167208251562        1.19065988454111     
   23.6000000000000        35.6169491730027        1.19066751816414     
   23.7000000000000        35.6171775045574        1.19067515124255     
   23.8000000000000        35.6174058202221        1.19068278378975     
   23.9000000000000        35.6176341202175        1.19069041581313     
   24.0000000000000        35.6178624046772        1.19069804731716     
   24.1000000000000        35.6180906736909        1.19070567830483     
   24.2000000000000        35.6183189273267        1.19071330877842     
   24.3000000000000        35.6185471656425        1.19072093873987     
   24.4000000000000        35.6187753886939        1.19072856819103     
   24.5000000000000        35.6190035965388        1.19073619713384     
   24.6000000000000        35.6192317892418        1.19074382557046     
   24.7000000000000        35.6194599668773        1.19075145350337     
   24.8000000000000        35.6196881295335        1.19075908093554     
   24.9000000000000        35.6199162773162        1.19076670787048     
   25.0000000000000        35.6201444103532        1.19077433431248     
   25.1000000000000        35.6203725288002        1.19078196026673     
   25.2000000000000        35.6206006328468        1.19078958573959     
   25.3000000000000        35.6208287227252        1.19079721073880     
   25.4000000000000        35.6210567987201        1.19080483527389     
   25.5000000000000        35.6212848611812        1.19081245935655     
   25.6000000000000        35.6215129105383        1.19082008300114     
   25.7000000000000        35.6217409473203        1.19082770622535     
   25.8000000000000        35.6219689721764        1.19083532905089     
   25.9000000000000        35.6221969859019        1.19084295150432     
   26.0000000000000        35.6224249894647        1.19085057361803     
   26.1000000000000        35.6226529840312        1.19085819543098     
   26.2000000000000        35.6228809709844        1.19086581698942     
   26.3000000000000        35.6231089519234        1.19087343834682     
   26.4000000000000        35.6233369286279        1.19088105956265     
   26.5000000000000        35.6235649029621        1.19088868069924     
   26.6000000000000        35.6237928766921        1.19089630181564     
   26.7000000000000        35.6240208512002        1.19090392295804     
   26.8000000000000        35.6242488271078        1.19091154414724     
   26.9000000000000        35.6244768038810        1.19091916536537     
   27.0000000000000        35.6247047795542        1.19092678654672     
   27.1000000000000        35.6249327507349        1.19093440757790     
   27.2000000000000        35.6251607129790        1.19094202831032     
