 # applied field (T), theta (degree), phi (degree), abs for RE 1-2
     0.00000     0.00000     0.00000     0.27904     0.00000     0.00000     0.00000
     0.10000     0.00390   180.00000     0.27904     0.00000     0.00000     0.00000
     0.20000     0.00778   180.00000     0.27905     0.00000     0.00000     0.00000
     0.30000     0.01162   180.00000     0.27906     0.00000     0.00000     0.00000
     0.40000     0.01541   180.00000     0.27907     0.00000     0.00000     0.00000
     0.50000     0.01912   180.00000     0.27909     0.00000     0.00000     0.00000
     0.60000     0.02273   180.00000     0.27911     0.00000     0.00000     0.00000
     0.70000     0.02622   180.00000     0.27914     0.00000     0.00000     0.00000
     0.80000     0.02958   180.00000     0.27917     0.00000     0.00000     0.00000
     0.90000     0.03279   180.00000     0.27920     0.00000     0.00000     0.00000
     1.00000     0.03582   180.00000     0.27924     0.00000     0.00000     0.00000
     1.10000     0.03866   180.00000     0.27928     0.00000     0.00000     0.00000
     1.20000     0.04129   180.00000     0.27933     0.00000     0.00000     0.00000
     1.30000     0.04368   180.00000     0.27938     0.00000     0.00000     0.00000
     1.40000     0.04583   180.00000     0.27943     0.00000     0.00000     0.00000
     1.50000     0.04771   180.00000     0.27949     0.00000     0.00000     0.00000
     1.60000     0.04930   180.00000     0.27955     0.00000     0.00000     0.00000
     1.70000     0.05058   180.00000     0.27962     0.00000     0.00000     0.00000
     1.80000     0.05154   180.00000     0.27969     0.00000     0.00000     0.00000
     1.90000     0.05215   180.00000     0.27976     0.00000     0.00000     0.00000
     2.00000     0.03862   180.00000     0.27982     0.00000     0.00000     0.00000
     2.10000     0.03860   180.00000     0.27990     0.00000     0.00000     0.00000
     2.20000     0.03817   180.00000     0.27998     0.00000     0.00000     0.00000
     2.30000     0.03734   180.00000     0.28007     0.00000     0.00000     0.00000
     2.40000     0.03607   180.00000     0.28016     0.00000     0.00000     0.00000
     2.50000     0.03436   180.00000     0.28026     0.00000     0.00000     0.00000
     2.60000     0.03217   180.00000     0.28036     0.00000     0.00000     0.00000
     2.70000     0.02950   180.00000     0.28046     0.00000     0.00000     0.00000
     2.80000     0.02632   180.00000     0.28057     0.00000     0.00000     0.00000
     2.90000     0.02262   180.00000     0.28068     0.00000     0.00000     0.00000
     3.00000     0.01838   180.00000     0.28080     0.00000     0.00000     0.00000
     3.10000     0.01359   180.00000     0.28092     0.00000     0.00000     0.00000
     3.20000     0.00822   180.00000     0.28104     0.00000     0.00000     0.00000
     3.30000     0.00225   180.00000     0.28116     0.00000     0.00000     0.00000
     3.40000     0.00433   360.00000     0.28129     0.00000     0.00000     0.00000
     3.50000     0.01153   360.00000     0.28143     0.00000     0.00000     0.00000
     3.60000     0.01938   360.00000     0.28156     0.00000     0.00000     0.00000
     3.70000     0.02789   360.00000     0.28170     0.00000     0.00000     0.00000
     3.80000     0.03708   360.00000     0.28184     0.00000     0.00000     0.00000
     3.90000     0.04696   360.00000     0.28199     0.00000     0.00000     0.00000
     4.00000     0.05756   360.00000     0.28214     0.00000     0.00000     0.00000
     4.10000     0.06888   360.00000     0.28230     0.00000     0.00000     0.00000
     4.20000     0.08096   360.00000     0.28245     0.00000     0.00000     0.00000
     4.30000     0.09379   360.00000     0.28261     0.00000     0.00000     0.00000
     4.40000     0.10740   360.00000     0.28278     0.00000     0.00000     0.00000
     4.50000     0.12180   360.00000     0.28294     0.00000     0.00000     0.00000
     4.60000     0.13702   360.00000     0.28311     0.00000     0.00000     0.00000
     4.70000     0.15305   360.00000     0.28329     0.00000     0.00000     0.00000
     4.80000     0.16993   360.00000     0.28346     0.00000     0.00000     0.00000
     4.90000     0.18767   360.00000     0.28364     0.00000     0.00000     0.00000
     5.00000     0.20628   360.00000     0.28383     0.00000     0.00000     0.00000
     5.10000     0.22577   360.00000     0.28401     0.00000     0.00000     0.00000
     5.20000     0.24616   360.00000     0.28420     0.00000     0.00000     0.00000
     5.30000     0.26748   360.00000     0.28439     0.00000     0.00000     0.00000
     5.40000     0.28972   360.00000     0.28459     0.00000     0.00000     0.00000
     5.50000     0.31291   360.00000     0.28478     0.00000     0.00000     0.00000
     5.60000     0.33705   360.00000     0.28498     0.00000     0.00000     0.00000
     5.70000     0.36218   360.00000     0.28519     0.00000     0.00000     0.00000
     5.80000     0.38829   360.00000     0.28539     0.00000     0.00000     0.00000
     5.90000     0.41540   360.00000     0.28560     0.00000     0.00000     0.00000
     6.00000     0.44353   360.00000     0.28581     0.00000     0.00000     0.00000
     6.10000     0.47269   360.00000     0.28603     0.00000     0.00000     0.00000
     6.20000     0.50289   360.00000     0.28624     0.00000     0.00000     0.00000
     6.30000     0.53415   360.00000     0.28646     0.00000     0.00000     0.00000
     6.40000     0.56648   360.00000     0.28668     0.00000     0.00000     0.00000
     6.50000     0.59989   360.00000     0.28691     0.00000     0.00000     0.00000
     6.60000     0.63007   360.00000     0.28720     0.00000     0.00000     0.00000
     6.70000     0.66598   360.00000     0.28743     0.00000     0.00000     0.00000
     6.80000     0.70302   360.00000     0.28766     0.00000     0.00000     0.00000
     6.90000     0.74119   360.00000     0.28790     0.00000     0.00000     0.00000
     7.00000     0.78051   360.00000     0.28814     0.00000     0.00000     0.00000
     7.10000     0.82099   360.00000     0.28837     0.00000     0.00000     0.00000
     7.20000     0.86264   360.00000     0.28861     0.00000     0.00000     0.00000
     7.30000     0.90547   360.00000     0.28886     0.00000     0.00000     0.00000
     7.40000     0.94950   360.00000     0.28910     0.00000     0.00000     0.00000
     7.50000     0.99474   360.00000     0.28935     0.00000     0.00000     0.00000
     7.60000     1.04119   360.00000     0.28960     0.00000     0.00000     0.00000
     7.70000     1.08887   360.00000     0.28985     0.00000     0.00000     0.00000
     7.80000     1.13779   360.00000     0.29010     0.00000     0.00000     0.00000
     7.90000     1.18796   360.00000     0.29036     0.00000     0.00000     0.00000
     8.00000     1.23939   360.00000     0.29061     0.00000     0.00000     0.00000
     8.10000     1.29210   360.00000     0.29087     0.00000     0.00000     0.00000
     8.20000     1.34608   360.00000     0.29113     0.00000     0.00000     0.00000
     8.30000     1.40260   360.00000     0.29147     0.00000     0.00000     0.00000
     8.40000     1.45953   360.00000     0.29173     0.00000     0.00000     0.00000
     8.50000     1.51777   360.00000     0.29199     0.00000     0.00000     0.00000
     8.60000     1.57733   360.00000     0.29226     0.00000     0.00000     0.00000
     8.70000     1.63822   360.00000     0.29253     0.00000     0.00000     0.00000
     8.80000     1.70045   360.00000     0.29280     0.00000     0.00000     0.00000
     8.90000     1.76404   360.00000     0.29307     0.00000     0.00000     0.00000
     9.00000     1.82898   360.00000     0.29334     0.00000     0.00000     0.00000
     9.10000     1.89529   360.00000     0.29361     0.00000     0.00000     0.00000
     9.20000     1.96298   360.00000     0.29388     0.00000     0.00000     0.00000
     9.30000     2.03206   360.00000     0.29416     0.00000     0.00000     0.00000
     9.40000     2.10784   360.00000     0.29452     0.00000     0.00000     0.00000
     9.50000     2.18009   360.00000     0.29479     0.00000     0.00000     0.00000
     9.60000     2.25375   360.00000     0.29507     0.00000     0.00000     0.00000
     9.70000     2.32882   360.00000     0.29535     0.00000     0.00000     0.00000
     9.80000     2.40533   360.00000     0.29563     0.00000     0.00000     0.00000
     9.90000     2.48327   360.00000     0.29591     0.00000     0.00000     0.00000
    10.00000     2.56266   360.00000     0.29619     0.00000     0.00000     0.00000
    10.10000     2.64349   360.00000     0.29647     0.00000     0.00000     0.00000
    10.20000     2.73425   360.00000     0.29684     0.00000     0.00000     0.00000
    10.30000     2.81840   360.00000     0.29712     0.00000     0.00000     0.00000
    10.40000     2.90402   360.00000     0.29740     0.00000     0.00000     0.00000
    10.50000     2.99112   360.00000     0.29769     0.00000     0.00000     0.00000
    10.60000     3.07971   360.00000     0.29797     0.00000     0.00000     0.00000
    10.70000     3.16978   360.00000     0.29826     0.00000     0.00000     0.00000
    10.80000     3.27231   360.00000     0.29863     0.00000     0.00000     0.00000
    10.90000     3.36579   360.00000     0.29891     0.00000     0.00000     0.00000
    11.00000     3.46079   360.00000     0.29920     0.00000     0.00000     0.00000
    11.10000     3.55731   360.00000     0.29948     0.00000     0.00000     0.00000
    11.20000     3.65535   360.00000     0.29977     0.00000     0.00000     0.00000
    11.30000     3.76800   360.00000     0.30014     0.00000     0.00000     0.00000
    11.40000     3.86952   360.00000     0.30043     0.00000     0.00000     0.00000
    11.50000     3.97258   360.00000     0.30071     0.00000     0.00000     0.00000
    11.60000     4.07719   360.00000     0.30100     0.00000     0.00000     0.00000
    11.70000     4.18335   360.00000     0.30128     0.00000     0.00000     0.00000
    11.80000     4.30631   360.00000     0.30165     0.00000     0.00000     0.00000
    11.90000     4.41601   360.00000     0.30194     0.00000     0.00000     0.00000
    12.00000     4.52728   360.00000     0.30222     0.00000     0.00000     0.00000
    12.10000     4.64013   360.00000     0.30250     0.00000     0.00000     0.00000
    12.20000     4.77157   360.00000     0.30287     0.00000     0.00000     0.00000
    12.30000     4.88800   360.00000     0.30316     0.00000     0.00000     0.00000
    12.40000     5.00601   360.00000     0.30344     0.00000     0.00000     0.00000
    12.50000     5.12562   360.00000     0.30372     0.00000     0.00000     0.00000
    12.60000     5.26564   360.00000     0.30409     0.00000     0.00000     0.00000
    12.70000     5.38888   360.00000     0.30437     0.00000     0.00000     0.00000
    12.80000     5.51371   360.00000     0.30464     0.00000     0.00000     0.00000
    12.90000     5.64016   360.00000     0.30492     0.00000     0.00000     0.00000
    13.00000     5.78886   360.00000     0.30529     0.00000     0.00000     0.00000
    13.10000     5.91897   360.00000     0.30556     0.00000     0.00000     0.00000
    13.20000     6.05070   360.00000     0.30584     0.00000     0.00000     0.00000
    13.30000     6.20609   360.00000     0.30620     0.00000     0.00000     0.00000
    13.40000     6.34150   360.00000     0.30647     0.00000     0.00000     0.00000
    13.50000     6.47854   360.00000     0.30674     0.00000     0.00000     0.00000
    13.60000     6.64067   360.00000     0.30710     0.00000     0.00000     0.00000
    13.70000     6.78142   360.00000     0.30737     0.00000     0.00000     0.00000
    13.80000     6.92382   360.00000     0.30763     0.00000     0.00000     0.00000
    13.90000     7.09272   360.00000     0.30798     0.00000     0.00000     0.00000
    14.00000     7.23884   360.00000     0.30825     0.00000     0.00000     0.00000
    14.10000     7.38661   360.00000     0.30851     0.00000     0.00000     0.00000
    14.20000     7.56233   360.00000     0.30886     0.00000     0.00000     0.00000
    14.30000     7.71384   360.00000     0.30912     0.00000     0.00000     0.00000
    14.40000     7.89430   360.00000     0.30946     0.00000     0.00000     0.00000
    14.50000     8.04957   360.00000     0.30971     0.00000     0.00000     0.00000
    14.60000     8.20651   360.00000     0.30997     0.00000     0.00000     0.00000
    14.70000     8.39383   360.00000     0.31030     0.00000     0.00000     0.00000
    14.80000     8.55453   360.00000     0.31055     0.00000     0.00000     0.00000
    14.90000     8.74663   360.00000     0.31088     0.00000     0.00000     0.00000
    15.00000     8.91111   360.00000     0.31113     0.00000     0.00000     0.00000
    15.10000     9.10799   360.00000     0.31146     0.00000     0.00000     0.00000
    15.20000     9.27627   360.00000     0.31170     0.00000     0.00000     0.00000
    15.30000     9.47794   360.00000     0.31202     0.00000     0.00000     0.00000
    15.40000     9.65001   360.00000     0.31226     0.00000     0.00000     0.00000
    15.50000     9.85649   360.00000     0.31257     0.00000     0.00000     0.00000
    15.60000    10.03236   360.00000     0.31281     0.00000     0.00000     0.00000
    15.70000    10.24365   360.00000     0.31311     0.00000     0.00000     0.00000
    15.80000    10.42333   360.00000     0.31334     0.00000     0.00000     0.00000
    15.90000    10.63944   360.00000     0.31364     0.00000     0.00000     0.00000
    16.00000    10.82293   360.00000     0.31387     0.00000     0.00000     0.00000
    16.10000    11.04386   360.00000     0.31417     0.00000     0.00000     0.00000
    16.20000    11.23117   360.00000     0.31439     0.00000     0.00000     0.00000
    16.30000    11.45692   360.00000     0.31468     0.00000     0.00000     0.00000
    16.40000    11.68538   360.00000     0.31496     0.00000     0.00000     0.00000
    16.50000    11.87864   360.00000     0.31517     0.00000     0.00000     0.00000
    16.60000    12.11192   360.00000     0.31545     0.00000     0.00000     0.00000
    16.70000    12.30901   360.00000     0.31566     0.00000     0.00000     0.00000
    16.80000    12.54713   360.00000     0.31593     0.00000     0.00000     0.00000
    16.90000    12.78795   360.00000     0.31620     0.00000     0.00000     0.00000
    17.00000    12.99099   360.00000     0.31640     0.00000     0.00000     0.00000
    17.10000    13.23665   360.00000     0.31666     0.00000     0.00000     0.00000
    17.20000    13.48500   360.00000     0.31692     0.00000     0.00000     0.00000
    17.30000    13.73606   360.00000     0.31717     0.00000     0.00000     0.00000
    17.40000    13.94720   360.00000     0.31736     0.00000     0.00000     0.00000
    17.50000    14.20308   360.00000     0.31761     0.00000     0.00000     0.00000
    17.60000    14.46167   360.00000     0.31785     0.00000     0.00000     0.00000
    17.70000    14.72296   360.00000     0.31809     0.00000     0.00000     0.00000
    17.80000    14.94219   360.00000     0.31826     0.00000     0.00000     0.00000
    17.90000    15.20830   360.00000     0.31849     0.00000     0.00000     0.00000
    18.00000    15.47711   360.00000     0.31872     0.00000     0.00000     0.00000
    18.10000    15.74862   360.00000     0.31894     0.00000     0.00000     0.00000
    18.20000    16.02282   360.00000     0.31916     0.00000     0.00000     0.00000
    18.30000    16.25225   360.00000     0.31932     0.00000     0.00000     0.00000
    18.40000    16.53127   360.00000     0.31953     0.00000     0.00000     0.00000
    18.50000    16.81297   360.00000     0.31973     0.00000     0.00000     0.00000
    18.60000    17.09736   360.00000     0.31993     0.00000     0.00000     0.00000
    18.70000    17.38444   360.00000     0.32013     0.00000     0.00000     0.00000
    18.80000    17.67420   360.00000     0.32032     0.00000     0.00000     0.00000
    18.90000    17.96664   360.00000     0.32051     0.00000     0.00000     0.00000
    19.00000    18.26175   360.00000     0.32069     0.00000     0.00000     0.00000
    19.10000    18.55955   360.00000     0.32087     0.00000     0.00000     0.00000
    19.20000    18.86002   360.00000     0.32104     0.00000     0.00000     0.00000
    19.30000    19.16315   360.00000     0.32121     0.00000     0.00000     0.00000
    19.40000    19.46896   360.00000     0.32138     0.00000     0.00000     0.00000
    19.50000    19.77743   360.00000     0.32154     0.00000     0.00000     0.00000
    19.60000    20.08857   360.00000     0.32169     0.00000     0.00000     0.00000
    19.70000    20.40236   360.00000     0.32184     0.00000     0.00000     0.00000
    19.80000    20.71881   360.00000     0.32199     0.00000     0.00000     0.00000
    19.90000    21.03792   360.00000     0.32213     0.00000     0.00000     0.00000
    20.00000    21.41666   360.00000     0.32231     0.00000     0.00000     0.00000
    20.10000    21.74162   360.00000     0.32244     0.00000     0.00000     0.00000
    20.20000    22.06922   360.00000     0.32257     0.00000     0.00000     0.00000
    20.30000    22.39946   360.00000     0.32269     0.00000     0.00000     0.00000
    20.40000    22.73233   360.00000     0.32281     0.00000     0.00000     0.00000
    20.50000    23.12772   360.00000     0.32296     0.00000     0.00000     0.00000
    20.60000    23.46641   360.00000     0.32307     0.00000     0.00000     0.00000
    20.70000    23.80772   360.00000     0.32317     0.00000     0.00000     0.00000
    20.80000    24.21330   360.00000     0.32330     0.00000     0.00000     0.00000
    20.90000    24.56040   360.00000     0.32339     0.00000     0.00000     0.00000
    21.00000    24.91011   360.00000     0.32348     0.00000     0.00000     0.00000
    21.10000    25.32584   360.00000     0.32359     0.00000     0.00000     0.00000
    21.20000    25.68131   360.00000     0.32367     0.00000     0.00000     0.00000
    21.30000    26.03937   360.00000     0.32375     0.00000     0.00000     0.00000
    21.40000    26.46520   360.00000     0.32384     0.00000     0.00000     0.00000
    21.50000    26.82899   360.00000     0.32391     0.00000     0.00000     0.00000
    21.60000    27.26175   360.00000     0.32399     0.00000     0.00000     0.00000
    21.70000    27.69830   360.00000     0.32407     0.00000     0.00000     0.00000
    21.80000    28.07090   360.00000     0.32412     0.00000     0.00000     0.00000
    21.90000    28.51433   360.00000     0.32418     0.00000     0.00000     0.00000
    22.00000    28.89260   360.00000     0.32422     0.00000     0.00000     0.00000
    22.10000    29.34288   360.00000     0.32428     0.00000     0.00000     0.00000
    22.20000    29.79692   360.00000     0.32433     0.00000     0.00000     0.00000
    22.30000    30.18391   360.00000     0.32435     0.00000     0.00000     0.00000
    22.40000    30.64475   360.00000     0.32439     0.00000     0.00000     0.00000
    22.50000    31.10932   360.00000     0.32442     0.00000     0.00000     0.00000
    22.60000    31.57760   360.00000     0.32445     0.00000     0.00000     0.00000
    22.70000    32.04958   360.00000     0.32446     0.00000     0.00000     0.00000
    22.80000    32.45133   360.00000     0.32447     0.00000     0.00000     0.00000
    22.90000    32.93004   360.00000     0.32448     0.00000     0.00000     0.00000
    23.00000    33.41243   360.00000     0.32448     0.00000     0.00000     0.00000
    23.10000    33.89849   360.00000     0.32448     0.00000     0.00000     0.00000
    23.20000    34.38820   360.00000     0.32447     0.00000     0.00000     0.00000
    23.30000    34.88156   360.00000     0.32446     0.00000     0.00000     0.00000
