 # applied field (T), magnetization (2 f.u.), magnetization (T)
  0.000000000000000E+000  6.546176513157636E-015  2.203333999813763E-016
  0.100000000000000       0.194163267353669       6.535212235957716E-003
  0.200000000000000       0.427054253988279       1.437393500902715E-002
  0.300000000000000       0.621200886323712       2.090858733797359E-002
  0.400000000000000       0.815332401641943       2.744273085329566E-002
  0.500000000000000        1.00944408386184       3.397620681955626E-002
  0.600000000000000        1.24224705193707       4.181196703449538E-002
  0.700000000000000        1.43629852589836       4.834341649103711E-002
  0.800000000000000        1.63031508764324       5.487369086051409E-002
  0.900000000000000        1.86298406587998       6.270494120062524E-002
   1.00000000000000        2.05690725642341       6.923207285095409E-002
   1.10000000000000        2.25078045878815       7.575752198243448E-002
   1.20000000000000        2.48325758682786       8.358231496440466E-002
   1.30000000000000        2.67700426364640       9.010350545670466E-002
   1.40000000000000        2.87068588305533       9.662250622493855E-002
   1.50000000000000        3.10291332692579       0.104438895253575     
   1.60000000000000        3.29643528834317       0.110952522199694     
   1.70000000000000        3.48987713587713       0.117463452645912     
   1.80000000000000        3.68323416703907       0.123971528314295     
   1.90000000000000        3.91504620087452       0.131773935332941     
   2.00000000000000        4.10820013814238       0.138275175199064     
   2.10000000000000        4.30125422597328       0.144773054299420     
   2.20000000000000        4.53268304759276       0.152562563033046     
   2.30000000000000        4.72550099929211       0.159052494184455     
   2.40000000000000        4.91820409055513       0.165538559324856     
   2.50000000000000        5.14919208930392       0.173313230694765     
   2.60000000000000        5.34162605452564       0.179790237500795     
   2.70000000000000        5.53393017380626       0.186262873908683     
   2.80000000000000        5.76441983686271       0.194020772129074     
   2.90000000000000        5.95642189998028       0.200483241829532     
   3.00000000000000        6.14827916051649       0.206940837716244     
   3.10000000000000        6.37821308582730       0.214680030729595     
   3.20000000000000        6.56973542725213       0.221126353796764     
   3.30000000000000        6.76109804167059       0.227567300718894     
   3.40000000000000        6.99041895080919       0.235285860628754     
   3.50000000000000        7.18141385770166       0.241714431127909     
   3.60000000000000        7.41028019383232       0.249417690867330     
   3.70000000000000        7.60088489971792       0.255833127850401     
   3.80000000000000        7.79130477667991       0.262242343799703     
   3.90000000000000        8.01946175798330       0.269921727836937     
   4.00000000000000        8.20945878795253       0.276316711460636     
   4.10000000000000        8.39925616770472       0.282704975190510     
   4.20000000000000        8.62664691150934       0.290358568949563     
   4.30000000000000        8.81598889253926       0.296731504716828     
   4.40000000000000        9.04281997808871       0.304366261311020     
   4.50000000000000        9.23168424104134       0.310723117883355     
   4.60000000000000        9.42032394619354       0.317072416214087     
   4.70000000000000        9.64629320129826       0.324678165030730     
   4.80000000000000        9.83442281225473       0.331010294440301     
   4.90000000000000        10.0597668759436       0.338595000355028     
   5.00000000000000        10.2473642011908       0.344909213914048     
   5.10000000000000        10.4720564873351       0.352471982082039     
   5.20000000000000        10.6590993915032       0.358767534750827     
   5.30000000000000        10.8458829285001       0.365054357552557     
   5.40000000000000        11.0695797889139       0.372583621348157     
   5.50000000000000        11.2557768108390       0.378850703029305     
   5.60000000000000        11.4787569314890       0.386355842558055     
   5.70000000000000        11.6643454506806       0.392602443050540     
   5.80000000000000        11.8865824947370       0.400082571858606     
   5.90000000000000        12.0715405877056       0.406307953254287     
   6.00000000000000        12.2930082966757       0.413762187524533     
   6.10000000000000        12.4773141063984       0.419965614152412     
   6.20000000000000        12.6979863028667       0.427393072796629     
   6.30000000000000        12.8816180410637       0.433573811299498     
   6.40000000000000        13.1014686314112       0.440973616049919     
   6.50000000000000        13.2844045808053       0.447130935460390     
   6.60000000000000        13.5034075579046       0.454502210960423     
   6.70000000000000        13.6856260744593       0.460635382776270     
   6.80000000000000        13.9037555203449       0.467977256670357     
   6.90000000000000        14.1213976901356       0.475302729662554     
   7.00000000000000        14.3024651239898       0.481397157951621     
   7.10000000000000        14.5191938914603       0.488691887342823     
   7.20000000000000        14.6994891461590       0.494760325367439     
   7.30000000000000        14.9152788321309       0.502023446839266     
   7.40000000000000        15.1305455964444       0.509268967638905     
   7.50000000000000        15.3096055646537       0.515295827977425     
   7.60000000000000        15.5238937582605       0.522508411716706     
   7.70000000000000        15.7376375602249       0.529702672139886     
   7.80000000000000        15.9154115246181       0.535686247731560     
   7.90000000000000        16.1281375108484       0.542846250172115     
   8.00000000000000        16.3402977710790       0.549987211217634     
   8.10000000000000        16.5167353348609       0.555925805790261     
   8.20000000000000        16.7278387875553       0.563031196454029     
   8.30000000000000        16.9383553203880       0.570116832372657     
   8.40000000000000        17.1134064188074       0.576008760830085     
   8.50000000000000        17.3228274143406       0.583057522787631     
   8.60000000000000        17.5316404413855       0.590085821538319     
   8.70000000000000        17.7398381073523       0.597093408259886     
   8.80000000000000        17.9129343835465       0.602919540656610     
   8.90000000000000        18.1199845468770       0.609888504350398     
   9.00000000000000        18.3263985042988       0.616836054412780     
   9.10000000000000        18.5321689365797       0.623761944490591     
   9.20000000000000        18.7372885440856       0.630665928890308     
   9.30000000000000        18.9077917460033       0.636404782725172     
   9.40000000000000        19.1116990680258       0.643267963614355     
   9.50000000000000        19.3149349888967       0.650108546258867     
   9.60000000000000        19.5174922858443       0.656926287552246     
   9.70000000000000        19.7193637565827       0.663720945077540     
   9.80000000000000        19.9205422194886       0.670492277113271     
   9.90000000000000        20.1210205137762       0.677240042639311     
   10.0000000000000        20.3207914996695       0.683964001342689     
   10.1000000000000        20.5198480585725       0.690663913623321     
   10.2000000000000        20.7181830932375       0.697339540599669     
   10.3000000000000        20.9157895279311       0.703990644114326     
   10.4000000000000        21.1126603085975       0.710616986739527     
   10.5000000000000        21.3087884030209       0.717218331782595     
   10.6000000000000        21.5041668009846       0.723794443291309     
   10.7000000000000        21.6987885144285       0.730345086059208     
   10.8000000000000        21.8926465776051       0.736870025630824     
   10.9000000000000        22.0857340472324       0.743369028306857     
   11.0000000000000        22.2780440026462       0.749841861149268     
   11.1000000000000        22.5013453226905       0.757357811714731     
   11.2000000000000        22.6919472811382       0.763773156223617     
   11.3000000000000        22.8817499626768       0.770161598402793     
   11.4000000000000        23.0707465424542       0.776522908539100     
   11.5000000000000        23.2589302189905       0.782856857706053     
   11.6000000000000        23.4773742908755       0.790209321387326     
   11.7000000000000        23.6637737159170       0.796483215620306     
   11.8000000000000        23.8493388572230       0.802729029252095     
   11.9000000000000        24.0647018762862       0.809977789826313     
   12.0000000000000        24.2484367062072       0.816161998224931     
   12.1000000000000        24.4313161119463       0.822317414470136     
   12.2000000000000        24.6435199999375       0.829459843953420     
   12.3000000000000        24.8245235589663       0.835552122322232     
   12.4000000000000        25.0345215134942       0.842620303758721     
   12.5000000000000        25.2136183781512       0.848648405970227     
   12.6000000000000        25.4213745647375       0.855641133231050     
   12.7000000000000        25.5985341401220       0.861604029511847     
   12.8000000000000        25.8040130206562       0.868520106443390     
   12.9000000000000        26.0082511950301       0.875394423271745     
   13.0000000000000        26.1823713037488       0.881255016166241     
   13.1000000000000        26.3842780863607       0.888050862230391     
   13.2000000000000        26.5849152357752       0.894803974555459     
   13.3000000000000        26.7842727203876       0.901514015494333     
   13.4000000000000        26.9541774132042       0.907232724509562     
   13.5000000000000        27.1511316393953       0.913861875772160     
   13.6000000000000        27.3467778049971       0.920446999893655     
   13.7000000000000        27.5411060666423       0.926987765562698     
   13.8000000000000        27.7341066305623       0.933483843137347     
   13.9000000000000        27.9257697529382       0.939934904656883     
   14.0000000000000        28.1160857402631       0.946340623854009     
   14.1000000000000        28.3050449497181       0.952700676167498     
   14.2000000000000        28.4926377895616       0.959014738755300     
   14.3000000000000        28.7052940297934       0.966172393661697     
   14.4000000000000        28.8899271767278       0.972386837915001     
   14.5000000000000        29.0731641468230       0.978554289180976     
   14.6000000000000        29.2808069109702       0.985543198831383     
   14.7000000000000        29.4610208748988       0.991608900744048     
   14.8000000000000        29.6398093768331       0.997626623979831     
   14.9000000000000        29.8423334933885        1.00444324847647     
   15.0000000000000        30.0180368104629        1.01035712952767     
   15.1000000000000        30.2170117385220        1.01705429425004     
   15.2000000000000        30.4140745222196        1.02368709937752     
   15.3000000000000        30.6092117860996        1.03025509471454     
   15.4000000000000        30.7784077485786        1.03594994904687     
   15.5000000000000        30.9698986448786        1.04239521372350     
   15.6000000000000        31.1594261185125        1.04877439286291     
   15.7000000000000        31.3469771827170        1.05508704935228     
   15.8000000000000        31.5555541237606        1.06210740184132     
   15.9000000000000        31.7388629862586        1.06827727288585     
   16.0000000000000        31.9201555335621        1.07437927811873     
   16.1000000000000        32.0994192186124        1.08041299522687     
   16.2000000000000        32.2986120035666        1.08711749264952     
   16.3000000000000        32.4952044400523        1.09373446667313     
   16.4000000000000        32.6677896507390        1.09954339745596     
   16.5000000000000        32.8594228188544        1.10599345076497     
   16.6000000000000        33.0484060306561        1.11235431095748     
   16.7000000000000        33.2347224896625        1.11862541269188     
   16.8000000000000        33.4183555991221        1.12480619734916     
   16.9000000000000        33.5992889662233        1.13089611317458     
   17.0000000000000        33.7971084705603        1.13755438825861     
   17.1000000000000        33.9722897967944        1.14345069996741     
   17.2000000000000        34.1636795589808        1.14989256063820     
   17.3000000000000        34.3516544307064        1.15621948178295     
   17.4000000000000        34.5361934946674        1.16243075936005     
   17.5000000000000        34.7172761859733        1.16852570118953     
   17.6000000000000        34.9124243631237        1.17509406384906     
   17.7000000000000        35.0861836360733        1.18094251161247     
   17.8000000000000        35.2732290755011        1.18723814961388     
   17.9000000000000        35.4559932849910        1.19338968854517     
   18.0000000000000        35.6504376126811        1.19993436080400     
   18.1000000000000        35.8241710940686        1.20578194046638     
   18.2000000000000        36.0087074233921        1.21199312600014     
   18.3000000000000        36.1880307142244        1.21802884933964     
   18.4000000000000        36.3763613296132        1.22436774422366     
   18.5000000000000        36.5585048818248        1.23049839286456     
   18.6000000000000        36.7476828196228        1.23686580720982     
   18.7000000000000        36.9296044029492        1.24298898474769     
   18.8000000000000        37.1042298146276        1.24886658529832     
   18.9000000000000        37.2947869493868        1.25528042111650     
   19.0000000000000        37.4757112775500        1.26137003270632     
   19.1000000000000        37.6573175854483        1.26748259859831     
   19.2000000000000        37.8376135332577        1.27355105995188     
   19.3000000000000        38.0144756144711        1.27950394307429     
   19.4000000000000        38.2018971880288        1.28581224112413     
   19.5000000000000        38.3778361064957        1.29173405212586     
   19.6000000000000        38.5581244483501        1.29780225747564     
   19.7000000000000        38.7397861672737        1.30391668841047     
   19.8000000000000        38.9216232001734        1.31003702012178     
   19.9000000000000        39.0390425908540        1.31398916127172     
   20.0000000000000        39.0392292542239        1.31399544404990     
   20.1000000000000        39.0394158957817        1.31400172609391     
   20.2000000000000        39.0396025155422        1.31400800740427     
   20.3000000000000        39.0397891135202        1.31401428798146     
   20.4000000000000        39.0399756897302        1.31402056782599     
   20.5000000000000        39.0401622441872        1.31402684693834     
   20.6000000000000        39.0403487769056        1.31403312531900     
   20.7000000000000        39.0405352879002        1.31403940296848     
   20.8000000000000        39.0407217771856        1.31404567988726     
   20.9000000000000        39.0409082447763        1.31405195607584     
   21.0000000000000        39.0410946906867        1.31405823153469     
   21.1000000000000        39.0412811149314        1.31406450626431     
   21.2000000000000        39.0414675175247        1.31407078026518     
   21.3000000000000        39.0416538984808        1.31407705353778     
   21.4000000000000        39.0418402578138        1.31408332608259     
   21.5000000000000        39.0420265955378        1.31408959790006     
   21.6000000000000        39.0422129116665        1.31409586899068     
   21.7000000000000        39.0423992062135        1.31410213935490     
   21.8000000000000        39.0425854791920        1.31410840899315     
   21.9000000000000        39.0427717306147        1.31411467790587     
   22.0000000000000        39.0429579604935        1.31412094609346     
   22.1000000000000        39.0431441688391        1.31412721355627     
   22.2000000000000        39.0433303556602        1.31413348029461     
   22.3000000000000        39.0435165209616        1.31413974630863     
   22.4000000000000        39.0437026647412        1.31414601159827     
   22.5000000000000        39.0438887869821        1.31415227616294     
   22.6000000000000        39.0440748876388        1.31415854000113     
   22.7000000000000        39.0442609666215        1.31416480310981     
   22.8000000000000        39.0444470238326        1.31417106548569     
   22.9000000000000        39.0446330592841        1.31417732712918     
   23.0000000000000        39.0448190731004        1.31418358804446     
   23.1000000000000        39.0450050654004        1.31418984823554     
   23.2000000000000        39.0451910362585        1.31419610770493     
   23.3000000000000        39.0453769857196        1.31420236645413     
   23.4000000000000        39.0455629138140        1.31420862448415     
   23.5000000000000        39.0457488205647        1.31421488179579     
   23.6000000000000        39.0459347059913        1.31422113838969     
   23.7000000000000        39.0461205701114        1.31422739426645     
   23.8000000000000        39.0463064129419        1.31423364942664     
   23.9000000000000        39.0464922344994        1.31423990387081     
   24.0000000000000        39.0466780348010        1.31424615759955     
   24.1000000000000        39.0468638138638        1.31425241061342     
   24.2000000000000        39.0470495717062        1.31425866291305     
   24.3000000000000        39.0472353083480        1.31426491449910     
   24.4000000000000        39.0474210238107        1.31427116537230     
   24.5000000000000        39.0476067181188        1.31427741553347     
   24.6000000000000        39.0477923913004        1.31428366498356     
   24.7000000000000        39.0479780433889        1.31428991372369     
   24.8000000000000        39.0481636744251        1.31429616175523     
   24.9000000000000        39.0483492844594        1.31430240907989     
   25.0000000000000        39.0485348735560        1.31430865569982     
   25.1000000000000        39.0487204417961        1.31431490161775     
   25.2000000000000        39.0489059892822        1.31432114683714     
   25.3000000000000        39.0490915161385        1.31432739136216     
   25.4000000000000        39.0492770225037        1.31433363519749     
   25.5000000000000        39.0494625085068        1.31433987834746     
   25.6000000000000        39.0496479742211        1.31434612081454     
   25.7000000000000        39.0498334196043        1.31435236259732     
   25.8000000000000        39.0500188444641        1.31435860368931     
   25.9000000000000        39.0502042484943        1.31436484408021     
   26.0000000000000        39.0503896313785        1.31437108375937     
   26.1000000000000        39.0505749928724        1.31437732271856     
   26.2000000000000        39.0507603329780        1.31438356095787     
   26.3000000000000        39.0509456516744        1.31438979847658     
   26.4000000000000        39.0511309489599        1.31439603527463     
   26.5000000000000        39.0513162249165        1.31440227135478     
   26.6000000000000        39.0515014796256        1.31440850671979     
   26.7000000000000        39.0516867131598        1.31441474137207     
   26.8000000000000        39.0518719255804        1.31442097531371     
   26.9000000000000        39.0520571169380        1.31442720854641     
   27.0000000000000        39.0522422872748        1.31443344107158     
   27.1000000000000        39.0524274366259        1.31443967289040     
   27.2000000000000        39.0526125650213        1.31444590400390     
