 # applied field (T), magnetization (2 f.u.), magnetization (T)
  0.000000000000000E+000  2.922954027298334E-015  1.005772143129925E-016
  0.100000000000000       0.653229764675058       2.247727108389559E-002
  0.200000000000000        1.30631368695589       4.494952381252340E-002
  0.300000000000000        2.00258098673695       6.890769242386346E-002
  0.400000000000000        2.65490155419511       9.135367853971539E-002
  0.500000000000000        3.30662935550600       0.113779267903763     
  0.600000000000000        3.95761884300831       0.136179452302333     
  0.700000000000000        4.65099961537974       0.160038297118913     
  0.800000000000000        5.30000274366781       0.182370132007183     
  0.900000000000000        5.99093429956469       0.206144700653848     
   1.00000000000000        6.63733183240945       0.228386878459295     
   1.10000000000000        7.32515482129912       0.252054483052756     
   1.20000000000000        7.96832980499525       0.274185774743221     
   1.30000000000000        8.65238760660355       0.297723821346857     
   1.40000000000000        9.33424628438866       0.321186197328923     
   1.50000000000000        10.0137323225413       0.344566932107405     
   1.60000000000000        10.6906727671995       0.367860074436589     
   1.70000000000000        11.3648952695514       0.391059693890189     
   1.80000000000000        12.0362281292215       0.414159882354256     
   1.90000000000000        12.7461342314821       0.438587354535596     
   2.00000000000000        13.4109680607024       0.461463914994476     
   2.10000000000000        14.1135853656470       0.485640583734199     
   2.20000000000000        14.8121500562217       0.509677804278637     
   2.30000000000000        15.5064610497645       0.533568657485782     
   2.40000000000000        16.2367299759626       0.558696803057142     
   2.50000000000000        16.9216554011339       0.582264704102627     
   2.60000000000000        17.6415427296856       0.607035624701704     
   2.70000000000000        18.3557478941268       0.631611025209743     
   2.80000000000000        19.0640401509073       0.655982965870164     
   2.90000000000000        19.8049911308055       0.681478674938678     
   3.00000000000000        20.5388324856789       0.706729745783969     
   3.10000000000000        21.2652999103193       0.731727083811553     
   3.20000000000000        22.0217270754261       0.757755319762781     
   3.30000000000000        22.7693921408576       0.783482056761702     
   3.40000000000000        23.5446636567637       0.810158716291008     
   3.50000000000000        24.3096049349418       0.836479918114111     
   3.60000000000000        25.0638791339266       0.862434071704469     
   3.70000000000000        25.8422496642675       0.889217366588299     
   3.80000000000000        26.6426679795309       0.916759313427846     
   3.90000000000000        27.4629083985424       0.944983327777928     
   4.00000000000000        28.2674029386535       0.972665535236106     
   4.10000000000000        29.0881594170216        1.00090730690020     
   4.20000000000000        29.9225225533119        1.02961727605805     
   4.30000000000000        30.7676351740691        1.05869712896804     
   4.40000000000000        31.6504225678778        1.08907334976066     
   4.50000000000000        32.5357256780841        1.11953613494839     
   4.60000000000000        33.4198640558293        1.14995884234314     
   4.70000000000000        34.3526901189058        1.18205686577648     
   4.80000000000000        35.2971840945411        1.21455637555926     
   4.90000000000000        36.2445965366818        1.24715630814324     
   5.00000000000000        37.2535497678894        1.28187382488117     
   5.10000000000000        38.2566552761775        1.31639012474200     
   5.20000000000000        39.3119032832260        1.35270061884046     
   5.30000000000000        40.4058744641342        1.39034355570735     
   5.40000000000000        41.5342057252017        1.42916880372719     
   5.50000000000000        42.7137288646596        1.46975553566907     
   5.60000000000000        43.5960904965058        1.50011710623054     
   5.70000000000000        43.5963281671814        1.50012528434564     
   5.80000000000000        43.5965658112009        1.50013346154352     
   5.90000000000000        43.5968034287501        1.50014163783058     
   6.00000000000000        43.5970410200152        1.50014981321321     
   6.10000000000000        43.5972785851821        1.50015798769782     
   6.20000000000000        43.5975161244359        1.50016616129077     
   6.30000000000000        43.5977536379606        1.50017433399840     
   6.40000000000000        43.5979911259385        1.50018250582697     
   6.50000000000000        43.5982285885499        1.50019067678270     
   6.60000000000000        43.5984660259729        1.50019884687172     
   6.70000000000000        43.5987034383830        1.50020701610005     
   6.80000000000000        43.5989408259531        1.50021518447365     
   6.90000000000000        43.5991781888528        1.50022335199835     
   7.00000000000000        43.5994155272489        1.50023151867991     
   7.10000000000000        43.5996528413048        1.50023968452392     
   7.20000000000000        43.5998901311807        1.50024784953592     
   7.30000000000000        43.6001273970331        1.50025601372128     
   7.40000000000000        43.6003646390152        1.50026417708528     
   7.50000000000000        43.6006018572766        1.50027233963307     
   7.60000000000000        43.6008390519632        1.50028050136965     
   7.70000000000000        43.6010762232175        1.50028866229995     
   7.80000000000000        43.6013133711780        1.50029682242872     
   7.90000000000000        43.6015504959799        1.50030498176061     
   8.00000000000000        43.6017875977546        1.50031314030015     
   8.10000000000000        43.6020246766298        1.50032129805174     
   8.20000000000000        43.6022617327298        1.50032945501964     
   8.30000000000000        43.6024987661752        1.50033761120800     
   8.40000000000000        43.6027357770831        1.50034576662087     
   8.50000000000000        43.6029727655670        1.50035392126214     
   8.60000000000000        43.6032097317371        1.50036207513560     
   8.70000000000000        43.6034466757001        1.50037022824493     
   8.80000000000000        43.6036835975593        1.50037838059368     
   8.90000000000000        43.6039204974150        1.50038653218530     
   9.00000000000000        43.6041573753639        1.50039468302312     
   9.10000000000000        43.6043942314997        1.50040283311036     
   9.20000000000000        43.6046310659129        1.50041098245014     
   9.30000000000000        43.6048678786912        1.50041913104548     
   9.40000000000000        43.6051046699192        1.50042727889928     
   9.50000000000000        43.6053414396784        1.50043542601435     
   9.60000000000000        43.6055781880478        1.50044357239342     
   9.70000000000000        43.6058149151035        1.50045171803908     
   9.80000000000000        43.6060516209188        1.50045986295389     
   9.90000000000000        43.6062883055648        1.50046800714026     
   10.0000000000000        43.6065249691096        1.50047615060056     
   10.1000000000000        43.6067616116193        1.50048429333704     
   10.2000000000000        43.6069982331572        1.50049243535190     
   10.3000000000000        43.6072348337846        1.50050057664725     
   10.4000000000000        43.6074714135605        1.50050871722510     
   10.5000000000000        43.6077079725418        1.50051685708742     
   10.6000000000000        43.6079445107832        1.50052499623610     
   10.7000000000000        43.6081810283377        1.50053313467295     
   10.8000000000000        43.6084175252562        1.50054127239973     
   10.9000000000000        43.6086540015876        1.50054940941812     
   11.0000000000000        43.6088904573795        1.50055754572975     
   11.1000000000000        43.6091268926775        1.50056568133620     
   11.2000000000000        43.6093633075255        1.50057381623898     
   11.3000000000000        43.6095997019663        1.50058195043955     
   11.4000000000000        43.6098360760408        1.50059008393934     
   11.5000000000000        43.6100724297888        1.50059821673969     
   11.6000000000000        43.6103087632485        1.50060634884195     
   11.7000000000000        43.6105450764573        1.50061448024738     
   11.8000000000000        43.6107813694509        1.50062261095721     
   11.9000000000000        43.6110176422643        1.50063074097266     
   12.0000000000000        43.6112538949311        1.50063887029487     
   12.1000000000000        43.6114901274842        1.50064699892498     
   12.2000000000000        43.6117263399553        1.50065512686408     
   12.3000000000000        43.6119625323752        1.50066325411323     
   12.4000000000000        43.6121987047739        1.50067138067346     
   12.5000000000000        43.6124348571804        1.50067950654578     
   12.6000000000000        43.6126709896230        1.50068763173114     
   12.7000000000000        43.6129071021291        1.50069575623050     
   12.8000000000000        43.6131431947249        1.50070388004476     
   12.9000000000000        43.6133792674360        1.50071200317480     
   13.0000000000000        43.6136153202868        1.50072012562146     
   13.1000000000000        43.6138513533006        1.50072824738553     
   13.2000000000000        43.6140873664994        1.50073636846779     
   13.3000000000000        43.6143233599039        1.50074448886893     
   13.4000000000000        43.6145593335328        1.50075260858960     
   13.5000000000000        43.6147952874031        1.50076072763039     
   13.6000000000000        43.6150312215294        1.50076884599181     
   13.7000000000000        43.6152671359238        1.50077696367425     
   13.8000000000000        43.6155030305951        1.50078508067804     
   13.9000000000000        43.6157389055485        1.50079319700335     
   14.0000000000000        43.6159747607853        1.50080131265022     
   14.1000000000000        43.6162105963019        1.50080942761852     
   14.2000000000000        43.6164464120898        1.50081754190798     
   14.3000000000000        43.6166822081343        1.50082565551807     
   14.4000000000000        43.6169179844150        1.50083376844810     
   14.5000000000000        43.6171537409047        1.50084188069714     
   14.6000000000000        43.6173894775696        1.50084999226402     
   14.7000000000000        43.6176251943694        1.50085810314735     
   14.8000000000000        43.6178608912575        1.50086621334552     
   14.9000000000000        43.6180965681815        1.50087432285675     
   15.0000000000000        43.6183322250852        1.50088243167908     
   15.1000000000000        43.6185678619087        1.50089053981047     
   15.2000000000000        43.6188034785913        1.50089864724883     
   15.3000000000000        43.6190390750733        1.50090675399209     
   15.4000000000000        43.6192746512977        1.50091486003829     
   15.5000000000000        43.6195102086079        1.50092296543367     
   15.6000000000000        43.6197457439366        1.50093107007268     
   15.7000000000000        43.6199812588778        1.50093917401017     
   15.8000000000000        43.6202167534087        1.50094727724535     
   15.9000000000000        43.6204522275188        1.50095537977786     
   16.0000000000000        43.6206876812101        1.50096348160778     
   16.1000000000000        43.6209231145282        1.50097158273666     
   16.2000000000000        43.6211585276783        1.50097968317157     
   16.3000000000000        43.6213939204875        1.50098778290656     
   16.4000000000000        43.6216292930011        1.50099588194320     
   16.5000000000000        43.6218646452711        1.50100398028326     
   16.6000000000000        43.6220999773544        1.50101207792871     
   16.7000000000000        43.6223352893108        1.50102017488160     
   16.8000000000000        43.6225705812011        1.50102827114403     
   16.9000000000000        43.6228058530855        1.50103636671807     
   17.0000000000000        43.6230411050219        1.50104446160571     
   17.1000000000000        43.6232763370652        1.50105255580884     
   17.2000000000000        43.6235115492663        1.50106064932921     
   17.3000000000000        43.6237467416713        1.50106874216841     
   17.4000000000000        43.6239819143215        1.50107683432785     
   17.5000000000000        43.6242170672533        1.50108492580879     
   17.6000000000000        43.6244522004977        1.50109301661231     
   17.7000000000000        43.6246873140817        1.50110110673932     
   17.8000000000000        43.6249224080272        1.50110919619058     
   17.9000000000000        43.6251574823524        1.50111728496672     
   18.0000000000000        43.6253925370719        1.50112537306823     
   18.1000000000000        43.6256275721970        1.50113346049551     
   18.2000000000000        43.6258625877360        1.50114154724885     
   18.3000000000000        43.6260975836953        1.50114963332846     
   18.4000000000000        43.6263325600787        1.50115771873448     
   18.5000000000000        43.6265675168887        1.50116580346698     
   18.6000000000000        43.6268024541264        1.50117388752601     
   18.7000000000000        43.6270373717915        1.50118197091156     
   18.8000000000000        43.6272722698832        1.50119005362360     
   18.9000000000000        43.6275071483996        1.50119813566207     
   19.0000000000000        43.6277420073388        1.50120621702689     
   19.1000000000000        43.6279768466981        1.50121429771799     
   19.2000000000000        43.6282116664749        1.50122237773525     
   19.3000000000000        43.6284464666662        1.50123045707860     
   19.4000000000000        43.6286812472691        1.50123853574791     
   19.5000000000000        43.6289160082807        1.50124661374311     
   19.6000000000000        43.6291507496982        1.50125469106408     
   19.7000000000000        43.6293855661055        1.50126277096540     
   19.8000000000000        43.6296202628964        1.50127084675079     
   19.9000000000000        43.6298549400807        1.50127892186153     
   20.0000000000000        43.6300895976564        1.50128699629755     
   20.1000000000000        43.6303242356219        1.50129507005880     
   20.2000000000000        43.6305588539757        1.50130314314521     
   20.3000000000000        43.6307934527162        1.50131121555675     
   20.4000000000000        43.6310280318426        1.50131928729337     
   20.5000000000000        43.6312625913539        1.50132735835505     
   20.6000000000000        43.6314971312494        1.50133542874176     
   20.7000000000000        43.6317316515288        1.50134349845349     
   20.8000000000000        43.6319661521917        1.50135156749022     
   20.9000000000000        43.6322006332381        1.50135963585197     
   21.0000000000000        43.6324350946683        1.50136770353873     
   21.1000000000000        43.6326695364825        1.50137577055052     
   21.2000000000000        43.6329039586813        1.50138383688735     
   21.3000000000000        43.6331383612655        1.50139190254926     
   21.4000000000000        43.6333727442360        1.50139996753626     
   21.5000000000000        43.6336071112654        1.50140803197475     
   21.6000000000000        43.6338414604872        1.50141609580048     
   21.7000000000000        43.6340757900988        1.50142415895144     
   21.8000000000000        43.6343101001017        1.50143222142767     
   21.9000000000000        43.6345443904974        1.50144028322923     
   22.0000000000000        43.6347786612872        1.50144834435617     
   22.1000000000000        43.6350129124731        1.50145640480854     
   22.2000000000000        43.6352471440568        1.50146446458641     
   22.3000000000000        43.6354813560404        1.50147252368986     
   22.4000000000000        43.6357155484259        1.50148058211894     
   22.5000000000000        43.6359497212157        1.50148863987375     
   22.6000000000000        43.6361838744121        1.50149669695436     
   22.7000000000000        43.6364180080176        1.50150475336086     
   22.8000000000000        43.6366521220349        1.50151280909334     
   22.9000000000000        43.6368862164666        1.50152086415189     
   23.0000000000000        43.6371202913156        1.50152891853661     
   23.1000000000000        43.6373543465850        1.50153697224760     
   23.2000000000000        43.6375883822778        1.50154502528498     
   23.3000000000000        43.6378223983972        1.50155307764884     
   23.4000000000000        43.6380563949466        1.50156112933932     
   23.5000000000000        43.6382903719295        1.50156918035652     
   23.6000000000000        43.6385243293496        1.50157723070058     
   23.7000000000000        43.6387582672106        1.50158528037161     
   23.8000000000000        43.6389921855164        1.50159332936977     
   23.9000000000000        43.6392260842711        1.50160137769519     
   24.0000000000000        43.6394599634792        1.50160942534801     
   24.1000000000000        43.6396938231451        1.50161747232840     
   24.2000000000000        43.6399276632736        1.50162551863652     
   24.3000000000000        43.6401614838699        1.50163356427254     
   24.4000000000000        43.6403952849394        1.50164160923666     
   24.5000000000000        43.6406290664880        1.50164965352908     
   24.6000000000000        43.6408628285222        1.50165769715002     
   24.7000000000000        43.6410965710491        1.50166574009972     
   24.8000000000000        43.6413302940767        1.50167378237846     
   24.9000000000000        43.6415639976141        1.50168182398655     
   25.0000000000000        43.6417976816717        1.50168986492436     
   25.1000000000000        43.6420313462621        1.50169790519231     
   25.2000000000000        43.6422649914004        1.50170594479093     
   25.3000000000000        43.6424986171053        1.50171398372085     
   25.4000000000000        43.6427322234006        1.50172202198290     
   25.5000000000000        43.6429658103174        1.50173005957814     
   25.6000000000000        43.6431993778979        1.50173809650803     
   25.7000000000000        43.6434335853516        1.50174615545561     
   25.8000000000000        43.6436670912553        1.50175419026324     
   25.9000000000000        43.6439005780497        1.50176222441333     
   26.0000000000000        43.6441340459276        1.50177025791251     
   26.1000000000000        43.6443674951991        1.50177829077146     
   26.2000000000000        43.6446009263858        1.50178632300812     
   26.3000000000000        43.6448343404113        1.50179435465427     
   26.4000000000000        43.6450677389909        1.50180238576894     
   26.5000000000000        43.6453011254051        1.50181041646500     
   26.6000000000000        43.6455345056023        1.50181844694714     
   26.7000000000000        43.6457678865870        1.50182647745638     
   26.8000000000000        43.6460012598142        1.50183450769868     
   26.9000000000000        43.6462345852280        1.50184253629575     
   27.0000000000000        43.6464678432295        1.50185056257321     
   27.1000000000000        43.6467010539481        1.50185858722368     
   27.2000000000000        43.6469342392289        1.50186661099886     
