 # applied field (T), magnetization (2 f.u.), magnetization (T)
  0.000000000000000E+000  9.689186869818962E-015  3.374042674350096E-016
  0.100000000000000       0.272851495648005       9.501443231983202E-003
  0.200000000000000       0.584597883697237       2.035731412171728E-002
  0.300000000000000       0.857404259226816       2.985718614646621E-002
  0.400000000000000        1.16906393022609       4.071003730883754E-002
  0.500000000000000        1.44176366866570       5.020619593537168E-002
  0.600000000000000        1.75326633251077       6.105357967467031E-002
  0.700000000000000        2.02579794123023       7.054388355964356E-002
  0.800000000000000        2.29823005307780       8.003072268853131E-002
  0.900000000000000        2.60937536840138       9.086566256461080E-002
   1.00000000000000        2.88154923404424       0.100343508846865     
   1.10000000000000        3.19236434594011       0.111166950126919     
   1.20000000000000        3.46421859278907       0.120633666399353     
   1.30000000000000        3.77463340392898       0.131443168100666     
   1.40000000000000        4.04610673235565       0.140896619740788     
   1.50000000000000        4.31738133994407       0.150343151372064     
   1.60000000000000        4.62708243331197       0.161127799447860     
   1.70000000000000        4.89788637688214       0.170557941257119     
   1.80000000000000        5.20701468683222       0.181322643431150     
   1.90000000000000        5.47728690656918       0.190734269146868     
   2.00000000000000        5.78577272006756       0.201476597818608     
   2.10000000000000        6.05545227750004       0.210867585394783     
   2.20000000000000        6.32483443522577       0.220248216691165     
   2.30000000000000        6.63225212089882       0.230953350199754     
   2.40000000000000        6.90095248791176       0.240310239659067     
   2.50000000000000        7.20755638099073       0.250987034660231     
   2.60000000000000        7.47551437772658       0.260318072734606     
   2.70000000000000        7.78123533978043       0.270964121637080     
   2.80000000000000        8.04839055609196       0.280267204678218     
   2.90000000000000        8.31515050968811       0.289556523579113     
   3.00000000000000        8.61945186302085       0.300153137782161     
   3.10000000000000        8.88532076802765       0.309411427908342     
   3.20000000000000        9.18856955018018       0.319971388673620     
   3.30000000000000        9.45348747646392       0.329196563092187     
   3.40000000000000        9.71794115138969       0.338405570995292     
   3.50000000000000        10.0195225477528       0.348907468778776     
   3.60000000000000        10.2829377366995       0.358080313729747     
   3.70000000000000        10.5832983846077       0.368539701677917     
   3.80000000000000        10.8456157148733       0.377674316155161     
   3.90000000000000        11.1074004501794       0.386790384203839     
   4.00000000000000        11.4058482499993       0.397183161494520     
   4.10000000000000        11.6664485014613       0.406257982541870     
   4.20000000000000        11.9264758677854       0.415312854145276     
   4.30000000000000        12.2228661095863       0.425633981578706     
   4.40000000000000        12.4816229526865       0.434644610051770     
   4.50000000000000        12.7765278722863       0.444914014460771     
   4.60000000000000        13.0339558834587       0.453878369333254     
   4.70000000000000        13.2907438888570       0.462820437435730     
   4.80000000000000        13.5833501864977       0.473009797474788     
   4.90000000000000        13.8387243905955       0.481902633108274     
   5.00000000000000        14.0934190982707       0.490771806798216     
   5.10000000000000        14.3835849346453       0.500876183230629     
   5.20000000000000        14.6367815707959       0.509693189929457     
   5.30000000000000        14.9252027588331       0.519736812884604     
   5.40000000000000        15.1768442850424       0.528499666357001     
   5.50000000000000        15.4277406562125       0.537236571471343     
   5.60000000000000        15.7134855678704       0.547186999085815     
   5.70000000000000        15.9627438185967       0.555866860318586     
   5.80000000000000        16.2112183605201       0.564519430644697     
   5.90000000000000        16.4941485361708       0.574371841371550     
   6.00000000000000        16.7409027524383       0.582964505203390     
   6.10000000000000        16.9868350914151       0.591528548996322     
   6.20000000000000        17.2668134357978       0.601278168799649     
   6.30000000000000        17.5109440896099       0.609779472935342     
   6.40000000000000        17.7888319858831       0.619456297557557     
   6.50000000000000        18.0311059905317       0.627892948037656     
   6.60000000000000        18.2724948437866       0.636298775099690     
   6.70000000000000        18.5472036682290       0.645864895653896     
   6.80000000000000        18.7866560201285       0.654203288386303     
   6.90000000000000        19.0251861828431       0.662509567942390     
   7.00000000000000        19.2965828945660       0.671960351577122     
   7.10000000000000        19.5330976637164       0.680196449558813     
   7.20000000000000        19.7686536515874       0.688399160126312     
   7.30000000000000        20.0366068275138       0.697730030326778     
   7.40000000000000        20.2700695181103       0.705859846497367     
   7.50000000000000        20.5356003733058       0.715106364794759     
   7.60000000000000        20.7669172386126       0.723161457397762     
   7.70000000000000        20.9972148583461       0.731181057052742     
   7.80000000000000        21.2590850133388       0.740300099651005     
   7.90000000000000        21.4871606571214       0.748242323961894     
   8.00000000000000        21.7464621342983       0.757271918098859     
   8.10000000000000        21.9722645057055       0.765134980782379     
   8.20000000000000        22.1969885850076       0.772960494354435     
   8.30000000000000        22.4524172890699       0.781855227827320     
   8.40000000000000        22.6747938044078       0.789598992733541     
   8.50000000000000        22.9275110461607       0.798399305594410     
   8.60000000000000        23.1474900040959       0.806059580925091     
   8.70000000000000        23.3974389503473       0.814763494085112     
   8.80000000000000        23.6149709056985       0.822338558022378     
   8.90000000000000        23.8620953782351       0.830944115200884     
   9.00000000000000        24.0771314451482       0.838432265404171     
   9.10000000000000        24.2909861676211       0.845879277928851     
   9.20000000000000        24.5338677526487       0.854337086037076     
   9.30000000000000        24.7451559280757       0.861694724299757     
   9.40000000000000        24.9850772203724       0.870049446832933     
   9.50000000000000        25.2233976339535       0.878348422344450     
   9.60000000000000        25.4306584819608       0.885565817934961     
   9.70000000000000        25.6659362473651       0.893758840027170     
   9.80000000000000        25.8705114793312       0.900882715044163     
   9.90000000000000        26.1026937499397       0.908967943451726     
   10.0000000000000        26.3045374419874       0.915996698698864     
   10.1000000000000        26.5335721002558       0.923972318544837     
   10.2000000000000        26.7609069885440       0.931888747701986     
   10.3000000000000        26.9584745788089       0.938768597266026     
   10.4000000000000        27.1825833205365       0.946572683082961     
   10.5000000000000        27.4049508748428       0.954316135941294     
   10.6000000000000        27.5981381618269       0.961043451238069     
   10.7000000000000        27.8172027708084       0.968671886410949     
   10.8000000000000        28.0344857046351       0.976238278730443     
   10.9000000000000        28.2499730986339       0.983742145390306     
   11.0000000000000        28.4636512101117       0.991183007831988     
   11.1000000000000        28.6491795626059       0.997643617860754     
   11.2000000000000        28.8594285890441        1.00496507008346     
   11.3000000000000        29.0678294796654        1.01222216510884     
   11.4000000000000        29.2743689565357        1.01941444056251     
   11.5000000000000        29.4790338576491        1.02654143810705     
   11.6000000000000        29.6818111355855        1.03360270339524     
   11.7000000000000        29.8826878796926        1.04059778684247     
   11.8000000000000        30.0816512954099        1.04752624290678     
   11.9000000000000        30.2786887054585        1.05438763013029     
   12.0000000000000        30.4737875713051        1.06118151188660     
   12.1000000000000        30.6908868444032        1.06874150863189     
   12.2000000000000        30.8818252724316        1.07539051244405     
   12.3000000000000        31.0707867653759        1.08197067391238     
   12.4000000000000        31.2577593012501        1.08848157439812     
   12.5000000000000        31.4656570720507        1.09572114940073     
   12.6000000000000        31.6483637955641        1.10208350250949     
   12.7000000000000        31.8514329713326        1.10915493248698     
   12.8000000000000        32.0298214263090        1.11536691154971     
   12.9000000000000        32.2280036968847        1.12226816598113     
   13.0000000000000        32.4020226932671        1.12832798841856     
   13.1000000000000        32.5952611769078        1.13505708652442     
   13.2000000000000        32.7858598613710        1.14169425952660     
   13.3000000000000        32.9738034178671        1.14823897363426     
   13.4000000000000        33.1590767494266        1.15469070312921     
   13.5000000000000        33.3416649646653        1.16104892945228     
   13.6000000000000        33.5215533974330        1.16731314188760     
   13.7000000000000        33.6987276068226        1.17348283756286     
   13.8000000000000        33.8923397901729        1.18022494892550     
   13.9000000000000        34.0637375764815        1.18619349358321     
   14.0000000000000        34.2508972808482        1.19271091179319     
   14.1000000000000        34.4164573500308        1.19847617100530     
   14.2000000000000        34.5970976496750        1.20476656552339     
   14.3000000000000        34.7742806230124        1.21093656638353     
   14.4000000000000        34.9479887387092        1.21698556309622     
   14.5000000000000        35.1182048040643        1.22291295696409     
   14.6000000000000        35.3013468097113        1.22929046779984     
   14.7000000000000        35.4641752395392        1.23496060377945     
   14.8000000000000        35.6391514613653        1.24105375945257     
   14.9000000000000        35.8098197210465        1.24699689997673     
   15.0000000000000        35.9761596179827        1.25278931494664     
   15.1000000000000        36.1381512680079        1.25843031194068     
   15.2000000000000        36.3098493920389        1.26440931518801     
   15.3000000000000        36.4763254080529        1.27020647020043     
   15.4000000000000        36.6507191047203        1.27627934073744     
   15.5000000000000        36.8062406564858        1.28169503102692     
   15.6000000000000        36.9809220471508        1.28777791986411     
   15.7000000000000        37.1366762611928        1.29320171209713     
   15.8000000000000        37.2973707643699        1.29879753885264     
   15.9000000000000        37.4614137995159        1.30450997074655     
   16.0000000000000        37.6270896352400        1.31027926126961     
   16.1000000000000        37.7831497791949        1.31571370682777     
   16.2000000000000        37.9383578849462        1.32111848206068     
   16.3000000000000        38.0988245083986        1.32670637341433     
   16.4000000000000        38.2528844025383        1.33207116474529     
   16.5000000000000        38.4111099723548        1.33758101641713     
   16.6000000000000        38.5654994356271        1.34295728425621     
   16.7000000000000        38.7238711906458        1.34847222650085     
   16.8000000000000        38.8765898360061        1.35379031184214     
   16.9000000000000        38.9469234782639        1.35623952366568     
   17.0000000000000        38.9473348161459        1.35625384758766     
   17.1000000000000        38.9477461488420        1.35626817132904     
   17.2000000000000        38.9481574763564        1.35628249488999     
   17.3000000000000        38.9485687986936        1.35629681827066     
   17.4000000000000        38.9489801158579        1.35631114147119     
   17.5000000000000        38.9493914278538        1.35632546449174     
   17.6000000000000        38.9498027346857        1.35633978733247     
   17.7000000000000        38.9502140363580        1.35635410999352     
   17.8000000000000        38.9506253328750        1.35636843247506     
   17.9000000000000        38.9510366242413        1.35638275477722     
   18.0000000000000        38.9514479104611        1.35639707690018     
   18.1000000000000        38.9518591915390        1.35641139884408     
   18.2000000000000        38.9522704674793        1.35642572060908     
   18.3000000000000        38.9526817382864        1.35644004219532     
   18.4000000000000        38.9530930039647        1.35645436360297     
   18.5000000000000        38.9535042645187        1.35646868483217     
   18.6000000000000        38.9539155199529        1.35648300588309     
   18.7000000000000        38.9543267702715        1.35649732675586     
   18.8000000000000        38.9547380154790        1.35651164745066     
   18.9000000000000        38.9551492555799        1.35652596796763     
   19.0000000000000        38.9555604905786        1.35654028830692     
   19.1000000000000        38.9559717204795        1.35655460846870     
   19.2000000000000        38.9563829452869        1.35656892845311     
   19.3000000000000        38.9567941650055        1.35658324826031     
   19.4000000000000        38.9572053796395        1.35659756789045     
   19.5000000000000        38.9576165891934        1.35661188734369     
   19.6000000000000        38.9580277936717        1.35662620662018     
   19.7000000000000        38.9584389930787        1.35664052572007     
   19.8000000000000        38.9588501874190        1.35665484464353     
   19.9000000000000        38.9592613766969        1.35666916339070     
   20.0000000000000        38.9596725609169        1.35668348196174     
   20.1000000000000        38.9600837400834        1.35669780035681     
   20.2000000000000        38.9604949142008        1.35671211857605     
   20.3000000000000        38.9609060832737        1.35672643661963     
   20.4000000000000        38.9613172473065        1.35674075448769     
   20.5000000000000        38.9617284063035        1.35675507218040     
   20.6000000000000        38.9621395602693        1.35676938969791     
   20.7000000000000        38.9625507092082        1.35678370704037     
   20.8000000000000        38.9629618531249        1.35679802420793     
   20.9000000000000        38.9633729920236        1.35681234120076     
   21.0000000000000        38.9637841259088        1.35682665801901     
   21.1000000000000        38.9641952547851        1.35684097466283     
   21.2000000000000        38.9646063786567        1.35685529113237     
   21.3000000000000        38.9650174975284        1.35686960742780     
   21.4000000000000        38.9654286114044        1.35688392354927     
   21.5000000000000        38.9658397202892        1.35689823949693     
   21.6000000000000        38.9662508241872        1.35691255527095     
   21.7000000000000        38.9666619231031        1.35692687087146     
   21.8000000000000        38.9670730170412        1.35694118629864     
   21.9000000000000        38.9674841060059        1.35695550155263     
   22.0000000000000        38.9678951900018        1.35696981663359     
   22.1000000000000        38.9683062690333        1.35698413154168     
   22.2000000000000        38.9687173431049        1.35699844627705     
   22.3000000000000        38.9691284122211        1.35701276083985     
   22.4000000000000        38.9695394763863        1.35702707523025     
   22.5000000000000        38.9699505356050        1.35704138944840     
   22.6000000000000        38.9703615898816        1.35705570349446     
   22.7000000000000        38.9707726392207        1.35707001736858     
   22.8000000000000        38.9711836836268        1.35708433107091     
   22.9000000000000        38.9715947231043        1.35709864460162     
   23.0000000000000        38.9720057576576        1.35711295796085     
   23.1000000000000        38.9724167872913        1.35712727114877     
   23.2000000000000        38.9728278120099        1.35714158416553     
   23.3000000000000        38.9732388318179        1.35715589701129     
   23.4000000000000        38.9736498467197        1.35717020968621     
   23.5000000000000        38.9740608567198        1.35718452219043     
   23.6000000000000        38.9744718618227        1.35719883452412     
   23.7000000000000        38.9748828620329        1.35721314668743     
   23.8000000000000        38.9752938573549        1.35722745868052     
   23.9000000000000        38.9757048477932        1.35724177050355     
   24.0000000000000        38.9761158333523        1.35725608215667     
   24.1000000000000        38.9765268140366        1.35727039364003     
   24.2000000000000        38.9769377898508        1.35728470495381     
   24.3000000000000        38.9773487607992        1.35729901609814     
   24.4000000000000        38.9777597268864        1.35731332707320     
   24.5000000000000        38.9781706881168        1.35732763787913     
   24.6000000000000        38.9785816444951        1.35734194851609     
   24.7000000000000        38.9789925960256        1.35735625898424     
   24.8000000000000        38.9794035427130        1.35737056928374     
   24.9000000000000        38.9798144845617        1.35738487941474     
   25.0000000000000        38.9802254215761        1.35739918937740     
   25.1000000000000        38.9806363537609        1.35741349917188     
   25.2000000000000        38.9810472811206        1.35742780879834     
   25.3000000000000        38.9814582036595        1.35744211825692     
   25.4000000000000        38.9818691213824        1.35745642754780     
   25.5000000000000        38.9822800342936        1.35747073667112     
   25.6000000000000        38.9826909423978        1.35748504562704     
   25.7000000000000        38.9831018456994        1.35749935441573     
   25.8000000000000        38.9835127442029        1.35751366303733     
   25.9000000000000        38.9839236379128        1.35752797149201     
   26.0000000000000        38.9843345268338        1.35754227977992     
   26.1000000000000        38.9847454109703        1.35755658790123     
   26.2000000000000        38.9851562903268        1.35757089585608     
   26.3000000000000        38.9855671649079        1.35758520364464     
   26.4000000000000        38.9859780347181        1.35759951126706     
   26.5000000000000        38.9863888997619        1.35761381872351     
   26.6000000000000        38.9867997600439        1.35762812601413     
   26.7000000000000        38.9872106155686        1.35764243313909     
   26.8000000000000        38.9876214663405        1.35765674009855     
   26.9000000000000        38.9880323123642        1.35767104689266     
   27.0000000000000        38.9884431536442        1.35768535352158     
   27.1000000000000        38.9888539901850        1.35769965998547     
   27.2000000000000        38.9892648219912        1.35771396628449     
