 # applied field (T), theta (degree), phi (degree), abs for RE 3-4
     0.00000     0.00000     0.00000     0.04889     0.00000     0.00000     0.04889
     0.10000     0.59631   180.00000     0.04889     0.96956   180.00000     0.04889
     0.20000     1.10397   180.00000     0.04889     1.81239   180.00000     0.04891
     0.30000     1.69929   180.00000     0.04889     2.77839   180.00000     0.04895
     0.40000     2.29355   180.00000     0.04890     3.74063   180.00000     0.04901
     0.50000     2.79855   180.00000     0.04891     4.57393   180.00000     0.04907
     0.60000     3.38986   180.00000     0.04892     5.52568   180.00000     0.04915
     0.70000     3.97909   180.00000     0.04893     6.47009   180.00000     0.04925
     0.80000     4.47889   180.00000     0.04894     7.28482   180.00000     0.04935
     0.90000     5.06331   180.00000     0.04895     8.21232   180.00000     0.04948
     1.00000     5.64468   180.00000     0.04897     9.12925   180.00000     0.04962
     1.10000     6.13689   180.00000     0.04898     9.91723   180.00000     0.04975
     1.20000     6.71175   180.00000     0.04899    10.81160   180.00000     0.04992
     1.30000     7.28270   180.00000     0.04901    11.69266   180.00000     0.05010
     1.40000     7.84946   180.00000     0.04903    12.55957   180.00000     0.05029
     1.50000     8.41179   180.00000     0.04905    13.41157   180.00000     0.05049
     1.60000     8.88632   180.00000     0.04906    14.13905   180.00000     0.05068
     1.70000     9.43968   180.00000     0.04908    14.96120   180.00000     0.05090
     1.80000     9.98794   180.00000     0.04910    15.76663   180.00000     0.05113
     1.90000    10.53089   180.00000     0.04912    16.55485   180.00000     0.05137
     2.00000    11.06836   180.00000     0.04914    17.32543   180.00000     0.05162
     2.10000    11.60017   180.00000     0.04916    18.07802   180.00000     0.05187
     2.20000    12.12618   180.00000     0.04918    18.81230   180.00000     0.05214
     2.30000    12.64626   180.00000     0.04919    19.52805   180.00000     0.05240
     2.40000    13.16030   180.00000     0.04921    20.22507   180.00000     0.05267
     2.50000    13.66820   180.00000     0.04922    20.90324   180.00000     0.05295
     2.60000    14.16989   180.00000     0.04923    21.56248   180.00000     0.05323
     2.70000    14.74005   180.00000     0.04925    22.28782   180.00000     0.05355
     2.80000    15.22831   180.00000     0.04925    22.90690   180.00000     0.05383
     2.90000    15.71023   180.00000     0.04925    23.50711   180.00000     0.05411
     3.00000    16.18579   180.00000     0.04925    24.08853   180.00000     0.05439
     3.10000    16.72625   180.00000     0.04926    24.72713   180.00000     0.05472
     3.20000    17.18831   180.00000     0.04925    25.26923   180.00000     0.05500
     3.30000    17.71352   180.00000     0.04925    25.86426   180.00000     0.05531
     3.40000    18.16223   180.00000     0.04923    26.36791   180.00000     0.05559
     3.50000    18.67244   180.00000     0.04922    26.92048   180.00000     0.05590
     3.60000    19.17481   180.00000     0.04920    27.45114   180.00000     0.05620
     3.70000    19.66948   180.00000     0.04918    27.96028   180.00000     0.05650
     3.80000    20.09176   180.00000     0.04914    28.38846   180.00000     0.05675
     3.90000    20.57239   180.00000     0.04910    28.85803   180.00000     0.05703
     4.00000    21.04578   180.00000     0.04906    29.30735   180.00000     0.05731
     4.10000    21.51213   180.00000     0.04901    29.73686   180.00000     0.05757
     4.20000    22.03296   180.00000     0.04897    30.19850   180.00000     0.05786
     4.30000    22.48503   180.00000     0.04890    30.58785   180.00000     0.05810
     4.40000    22.93073   180.00000     0.04883    30.95887   180.00000     0.05833
     4.50000    23.42909   180.00000     0.04876    31.35753   180.00000     0.05858
     4.60000    23.86201   180.00000     0.04867    31.69154   180.00000     0.05878
     4.70000    24.34652   180.00000     0.04858    32.05042   180.00000     0.05900
     4.80000    24.82418   180.00000     0.04849    32.38936   180.00000     0.05920
     4.90000    25.29533   180.00000     0.04838    32.70901   180.00000     0.05938
     5.00000    25.76031   180.00000     0.04826    33.01000   180.00000     0.05954
     5.10000    26.21949   180.00000     0.04813    33.29296   180.00000     0.05968
     5.20000    26.67323   180.00000     0.04800    33.55853   180.00000     0.05981
     5.30000    27.17463   180.00000     0.04785    33.83844   180.00000     0.05993
     5.40000    27.61792   180.00000     0.04769    34.06952   180.00000     0.06001
     5.50000    28.10833   180.00000     0.04752    34.31307   180.00000     0.06008
     5.60000    28.59355   180.00000     0.04734    34.53874   180.00000     0.06013
     5.70000    29.07402   180.00000     0.04715    34.74728   180.00000     0.06016
     5.80000    29.59980   180.00000     0.04695    34.96290   180.00000     0.06016
     5.90000    30.07150   180.00000     0.04673    35.13804   180.00000     0.06013
     6.00000    30.58831   180.00000     0.04651    35.31904   180.00000     0.06007
     6.10000    31.10105   180.00000     0.04626    35.48333   180.00000     0.05998
     6.20000    31.61019   180.00000     0.04601    35.63177   180.00000     0.05986
     6.30000    32.11620   180.00000     0.04574    35.76524   180.00000     0.05971
     6.40000    32.66619   180.00000     0.04546    35.90041   180.00000     0.05952
     6.50000    33.21310   180.00000     0.04516    36.02014   180.00000     0.05929
     6.60000    33.75740   180.00000     0.04484    36.12548   180.00000     0.05903
     6.70000    34.34507   180.00000     0.04451    36.23008   180.00000     0.05871
     6.80000    34.93041   180.00000     0.04416    36.32052   180.00000     0.05835
     6.90000    35.51396   180.00000     0.04379    36.39804   180.00000     0.05795
     7.00000    36.14078   180.00000     0.04340    36.47391   180.00000     0.05749
     7.10000    36.76639   180.00000     0.04299    36.53797   180.00000     0.05698
     7.20000    37.43547   180.00000     0.04255    36.60038   180.00000     0.05640
     7.30000    38.10436   180.00000     0.04210    36.65302   180.00000     0.05577
     7.40000    38.77396   180.00000     0.04163    36.69784   180.00000     0.05508
     7.50000    39.53236   180.00000     0.04111    36.75133   180.00000     0.05429
     7.60000    40.24993   180.00000     0.04059    36.79316   180.00000     0.05346
     7.70000    41.05891   180.00000     0.04001    36.84751   180.00000     0.05251
     7.80000    41.87441   180.00000     0.03941    36.90351   180.00000     0.05149
     7.90000    42.78707   180.00000     0.03874    36.98011   180.00000     0.05033
     8.00000    43.71349   180.00000     0.03806    37.06886   180.00000     0.04910
     8.10000    44.70326   180.00000     0.03732    37.18499   180.00000     0.04775
     8.20000    45.81059   180.00000     0.03651    37.34977   180.00000     0.04623
     8.30000    47.00217   180.00000     0.03565    37.57045   180.00000     0.04458
     8.40000    48.34247   180.00000     0.03471    37.88262   180.00000     0.04274
     8.50000    49.85797   180.00000     0.03369    38.32377   180.00000     0.04071
     8.60000    51.64089   180.00000     0.03255    38.97194   180.00000     0.03842
     8.70000    53.81519   180.00000     0.03128    39.95860   180.00000     0.03580
     8.80000    56.48708   180.00000     0.02988    41.46910   180.00000     0.03286
     8.90000    60.03810   180.00000     0.02830    43.99388   180.00000     0.02943
     9.00000    65.32966   180.00000     0.02647    48.88036   180.00000     0.02524
     9.10000    74.78238   180.00000     0.02436    61.19707   180.00000     0.01998
     9.20000    90.00000   180.00000     0.02316    90.00000   180.00000     0.01670
     9.30000    90.00000   180.00000     0.02305    90.00000   180.00000     0.01660
     9.40000    90.00000   180.00000     0.02295    90.00000   180.00000     0.01649
     9.50000    90.00000   180.00000     0.02284    90.00000   180.00000     0.01638
     9.60000    90.00000   180.00000     0.02273    90.00000   180.00000     0.01628
     9.70000    90.00000   180.00000     0.02262    90.00000   180.00000     0.01617
     9.80000    90.00000   180.00000     0.02252    90.00000   180.00000     0.01607
     9.90000    90.00000   180.00000     0.02241    90.00000   180.00000     0.01596
    10.00000    90.00000   180.00000     0.02230    90.00000   180.00000     0.01586
    10.10000    90.00000   180.00000     0.02219    90.00000   180.00000     0.01575
    10.20000    90.00000   180.00000     0.02209    90.00000   180.00000     0.01565
    10.30000    90.00000   180.00000     0.02198    90.00000   180.00000     0.01554
    10.40000    90.00000   180.00000     0.02187    90.00000   180.00000     0.01544
    10.50000    90.00000   180.00000     0.02176    90.00000   180.00000     0.01533
    10.60000    90.00000   180.00000     0.02166    90.00000   180.00000     0.01523
    10.70000    90.00000   180.00000     0.02155    90.00000   180.00000     0.01512
    10.80000    90.00000   180.00000     0.02144    90.00000   180.00000     0.01502
    10.90000    90.00000   180.00000     0.02133    90.00000   180.00000     0.01491
    11.00000    90.00000   180.00000     0.02123    90.00000   180.00000     0.01481
    11.10000    90.00000   180.00000     0.02112    90.00000   180.00000     0.01470
    11.20000    90.00000   180.00000     0.02101    90.00000   180.00000     0.01460
    11.30000    90.00000   180.00000     0.02090    90.00000   180.00000     0.01449
    11.40000    90.00000   180.00000     0.02080    90.00000   180.00000     0.01439
    11.50000    90.00000   180.00000     0.02069    90.00000   180.00000     0.01429
    11.60000    90.00000   180.00000     0.02058    90.00000   180.00000     0.01418
    11.70000    90.00000   180.00000     0.02047    90.00000   180.00000     0.01408
    11.80000    90.00000   180.00000     0.02037    90.00000   180.00000     0.01397
    11.90000    90.00000   180.00000     0.02026    90.00000   180.00000     0.01387
    12.00000    90.00000   180.00000     0.02015    90.00000   180.00000     0.01376
    12.10000    90.00000   180.00000     0.02005    90.00000   180.00000     0.01366
    12.20000    90.00000   180.00000     0.01994    90.00000   180.00000     0.01355
    12.30000    90.00000   180.00000     0.01983    90.00000   180.00000     0.01345
    12.40000    90.00000   180.00000     0.01972    90.00000   180.00000     0.01334
    12.50000    90.00000   180.00000     0.01962    90.00000   180.00000     0.01324
    12.60000    90.00000   180.00000     0.01951    90.00000   180.00000     0.01313
    12.70000    90.00000   180.00000     0.01940    90.00000   180.00000     0.01303
    12.80000    90.00000   180.00000     0.01930    90.00000   180.00000     0.01292
    12.90000    90.00000   180.00000     0.01919    90.00000   180.00000     0.01282
    13.00000    90.00000   180.00000     0.01908    90.00000   180.00000     0.01271
    13.10000    90.00000   180.00000     0.01897    90.00000   180.00000     0.01261
    13.20000    90.00000   180.00000     0.01887    90.00000   180.00000     0.01250
    13.30000    90.00000   180.00000     0.01876    90.00000   180.00000     0.01240
    13.40000    90.00000   180.00000     0.01865    90.00000   180.00000     0.01230
    13.50000    90.00000   180.00000     0.01855    90.00000   180.00000     0.01219
    13.60000    90.00000   180.00000     0.01844    90.00000   180.00000     0.01209
    13.70000    90.00000   180.00000     0.01833    90.00000   180.00000     0.01198
    13.80000    90.00000   180.00000     0.01823    90.00000   180.00000     0.01188
    13.90000    90.00000   180.00000     0.01812    90.00000   180.00000     0.01177
    14.00000    90.00000   180.00000     0.01801    90.00000   180.00000     0.01167
    14.10000    90.00000   180.00000     0.01790    90.00000   180.00000     0.01156
    14.20000    90.00000   180.00000     0.01780    90.00000   180.00000     0.01146
    14.30000    90.00000   180.00000     0.01769    90.00000   180.00000     0.01135
    14.40000    90.00000   180.00000     0.01758    90.00000   180.00000     0.01125
    14.50000    90.00000   180.00000     0.01748    90.00000   180.00000     0.01115
    14.60000    90.00000   180.00000     0.01737    90.00000   180.00000     0.01104
    14.70000    90.00000   180.00000     0.01726    90.00000   180.00000     0.01094
    14.80000    90.00000   180.00000     0.01716    90.00000   180.00000     0.01083
    14.90000    90.00000   180.00000     0.01705    90.00000   180.00000     0.01073
    15.00000    90.00000   180.00000     0.01694    90.00000   180.00000     0.01062
    15.10000    90.00000   180.00000     0.01684    90.00000   180.00000     0.01052
    15.20000    90.00000   180.00000     0.01673    90.00000   180.00000     0.01042
    15.30000    90.00000   180.00000     0.01662    90.00000   180.00000     0.01031
    15.40000    90.00000   180.00000     0.01652    90.00000   180.00000     0.01021
    15.50000    90.00000   180.00000     0.01641    90.00000   180.00000     0.01010
    15.60000    90.00000   180.00000     0.01630    90.00000   180.00000     0.01000
    15.70000    90.00000   180.00000     0.01620    90.00000   180.00000     0.00989
    15.80000    90.00000   180.00000     0.01609    90.00000   180.00000     0.00979
    15.90000    90.00000   180.00000     0.01598    90.00000   180.00000     0.00969
    16.00000    90.00000   180.00000     0.01588    90.00000   180.00000     0.00958
    16.10000    90.00000   180.00000     0.01577    90.00000   180.00000     0.00948
    16.20000    90.00000   180.00000     0.01566    90.00000   180.00000     0.00937
    16.30000    90.00000   180.00000     0.01556    90.00000   180.00000     0.00927
    16.40000    90.00000   180.00000     0.01545    90.00000   180.00000     0.00916
    16.50000    90.00000   180.00000     0.01534    90.00000   180.00000     0.00906
    16.60000    90.00000   180.00000     0.01524    90.00000   180.00000     0.00896
    16.70000    90.00000   180.00000     0.01513    90.00000   180.00000     0.00885
    16.80000    90.00000   180.00000     0.01502    90.00000   180.00000     0.00875
    16.90000    90.00000   180.00000     0.01492    90.00000   180.00000     0.00864
    17.00000    90.00000   180.00000     0.01481    90.00000   180.00000     0.00854
    17.10000    90.00000   180.00000     0.01470    90.00000   180.00000     0.00844
    17.20000    90.00000   180.00000     0.01460    90.00000   180.00000     0.00833
    17.30000    90.00000   180.00000     0.01449    90.00000   180.00000     0.00823
    17.40000    90.00000   180.00000     0.01438    90.00000   180.00000     0.00812
    17.50000    90.00000   180.00000     0.01428    90.00000   180.00000     0.00802
    17.60000    90.00000   180.00000     0.01417    90.00000   180.00000     0.00792
    17.70000    90.00000   180.00000     0.01407    90.00000   180.00000     0.00781
    17.80000    90.00000   180.00000     0.01396    90.00000   180.00000     0.00771
    17.90000    90.00000   180.00000     0.01385    90.00000   180.00000     0.00760
    18.00000    90.00000   180.00000     0.01375    90.00000   180.00000     0.00750
    18.10000    90.00000   180.00000     0.01364    90.00000   180.00000     0.00740
    18.20000    90.00000   180.00000     0.01353    90.00000   180.00000     0.00729
    18.30000    90.00000   180.00000     0.01343    90.00000   180.00000     0.00719
    18.40000    90.00000   180.00000     0.01332    90.00000   180.00000     0.00708
    18.50000    90.00000   180.00000     0.01321    90.00000   180.00000     0.00698
    18.60000    90.00000   180.00000     0.01311    90.00000   180.00000     0.00688
    18.70000    90.00000   180.00000     0.01300    90.00000   180.00000     0.00677
    18.80000    90.00000   180.00000     0.01290    90.00000   180.00000     0.00667
    18.90000    90.00000   180.00000     0.01279    90.00000   180.00000     0.00656
    19.00000    90.00000   180.00000     0.01268    90.00000   180.00000     0.00646
    19.10000    90.00000   180.00000     0.01258    90.00000   180.00000     0.00636
    19.20000    90.00000   180.00000     0.01247    90.00000   180.00000     0.00625
    19.30000    90.00000   180.00000     0.01236    90.00000   180.00000     0.00615
    19.40000    90.00000   180.00000     0.01226    90.00000   180.00000     0.00605
    19.50000    90.00000   180.00000     0.01215    90.00000   180.00000     0.00594
    19.60000    90.00000   180.00000     0.01205    90.00000   180.00000     0.00584
    19.70000    90.00000   180.00000     0.01194    90.00000   180.00000     0.00573
    19.80000    90.00000   180.00000     0.01183    90.00000   180.00000     0.00563
    19.90000    90.00000   180.00000     0.01173    90.00000   180.00000     0.00553
    20.00000    90.00000   180.00000     0.01162    90.00000   180.00000     0.00542
    20.10000    90.00000   180.00000     0.01152    90.00000   180.00000     0.00532
    20.20000    90.00000   180.00000     0.01141    90.00000   180.00000     0.00522
    20.30000    90.00000   180.00000     0.01130    90.00000   180.00000     0.00511
    20.40000    90.00000   180.00000     0.01120    90.00000   180.00000     0.00501
    20.50000    90.00000   180.00000     0.01109    90.00000   180.00000     0.00490
    20.60000    90.00000   180.00000     0.01099    90.00000   180.00000     0.00480
    20.70000    90.00000   180.00000     0.01088    90.00000   180.00000     0.00470
    20.80000    90.00000   180.00000     0.01077    90.00000   180.00000     0.00459
    20.90000    90.00000   180.00000     0.01067    90.00000   180.00000     0.00449
    21.00000    90.00000   180.00000     0.01056    90.00000   180.00000     0.00439
    21.10000    90.00000   180.00000     0.01046    90.00000   180.00000     0.00428
    21.20000    90.00000   180.00000     0.01035    90.00000   180.00000     0.00418
    21.30000    90.00000   180.00000     0.01024    90.00000   180.00000     0.00408
    21.40000    90.00000   180.00000     0.01014    90.00000   180.00000     0.00397
    21.50000    90.00000   180.00000     0.01003    90.00000   180.00000     0.00387
    21.60000    90.00000   180.00000     0.00993    90.00000   180.00000     0.00377
    21.70000    90.00000   180.00000     0.00982    90.00000   180.00000     0.00366
    21.80000    90.00000   180.00000     0.00972    90.00000   180.00000     0.00356
    21.90000    90.00000   180.00000     0.00961    90.00000   180.00000     0.00346
    22.00000    90.00000   180.00000     0.00950    90.00000   180.00000     0.00335
    22.10000    90.00000   180.00000     0.00940    90.00000   180.00000     0.00325
    22.20000    90.00000   180.00000     0.00929    90.00000   180.00000     0.00315
    22.30000    90.00000   180.00000     0.00919    90.00000   180.00000     0.00304
    22.40000    90.00000   180.00000     0.00908    90.00000   180.00000     0.00294
    22.50000    90.00000   180.00000     0.00898    90.00000   180.00000     0.00284
    22.60000    90.00000   180.00000     0.00887    90.00000   180.00000     0.00273
    22.70000    90.00000   180.00000     0.00876    90.00000   180.00000     0.00263
    22.80000    90.00000   180.00000     0.00866    90.00000   180.00000     0.00253
    22.90000    90.00000   180.00000     0.00855    90.00000   180.00000     0.00242
    23.00000    90.00000   180.00000     0.00845    90.00000   180.00000     0.00232
    23.10000    90.00000   180.00000     0.00834    90.00000   180.00000     0.00222
    23.20000    90.00000   180.00000     0.00824    90.00000   180.00000     0.00211
    23.30000    90.00000   180.00000     0.00813    90.00000   180.00000     0.00201
