 # applied field (T), theta (degree), phi (degree), abs
     0.00000     0.00000     0.00000    45.84567
     0.10000     0.40127     0.00000    45.84567
     0.20000     0.80255     0.00000    45.84567
     0.30000     1.20382     0.00000    45.84567
     0.40000     1.60510     0.00000    45.84567
     0.50000     2.00637     0.00000    45.84567
     0.60000     2.35032     0.00000    45.84567
     0.70000     2.75159     0.00000    45.84567
     0.80000     3.15287     0.00000    45.84567
     0.90000     3.55414     0.00000    45.84567
     1.00000     3.95541     0.00000    45.84567
     1.10000     4.35669     0.00000    45.84567
     1.20000     4.75796     0.00000    45.84567
     1.30000     5.15924     0.00000    45.84567
     1.40000     5.56051     0.00000    45.84567
     1.50000     5.96178     0.00000    45.84567
     1.60000     6.36306     0.00000    45.84567
     1.70000     6.82166     0.00000    45.84567
     1.80000     7.22293     0.00000    45.84567
     1.90000     7.62420     0.00000    45.84567
     2.00000     8.02548     0.00000    45.84567
     2.10000     8.42675     0.00000    45.84567
     2.20000     8.88535     0.00000    45.84567
     2.30000     9.28662     0.00000    45.84567
     2.40000     9.68790     0.00000    45.84567
     2.50000    10.14650     0.00000    45.84567
     2.60000    10.54777     0.00000    45.84567
     2.70000    11.00637     0.00000    45.84567
     2.80000    11.40764     0.00000    45.84567
     2.90000    11.86624     0.00000    45.84567
     3.00000    12.26752     0.00000    45.84567
     3.10000    12.72611     0.00000    45.84567
     3.20000    13.18471     0.00000    45.84567
     3.30000    13.64331     0.00000    45.84567
     3.40000    14.10191     0.00000    45.84567
     3.50000    14.56051     0.00000    45.84567
     3.60000    15.01911     0.00000    45.84567
     3.70000    15.47771     0.00000    45.84567
     3.80000    15.93631     0.00000    45.84567
     3.90000    16.45223     0.00000    45.84567
     4.00000    16.91083     0.00000    45.84567
     4.10000    17.42675     0.00000    45.84567
     4.20000    17.88535     0.00000    45.84567
     4.30000    18.40127     0.00000    45.84567
     4.40000    18.91720     0.00000    45.84567
     4.50000    19.43312     0.00000    45.84567
     4.60000    20.00637     0.00000    45.84567
     4.70000    20.52229     0.00000    45.84567
     4.80000    21.09554     0.00000    45.84567
     4.90000    21.66879     0.00000    45.84567
     5.00000    22.24204     0.00000    45.84567
     5.10000    22.87261     0.00000    45.84567
     5.20000    23.50318     0.00000    45.84567
     5.30000    24.13376     0.00000    45.84567
     5.40000    24.76433     0.00000    45.84567
     5.50000    25.45223     0.00000    45.84567
     5.60000    26.19745     0.00000    45.84567
     5.70000    26.94268     0.00000    45.84567
     5.80000    27.74522     0.00000    45.84567
     5.90000    28.54777     0.00000    45.84567
     6.00000    90.00000     0.00000    45.84567
     6.10000    90.00000     0.00000    45.84567
     6.20000    90.00000     0.00000    45.84567
     6.30000    90.00000     0.00000    45.84567
     6.40000    90.00000     0.00000    45.84567
     6.50000    90.00000     0.00000    45.84567
     6.60000    90.00000     0.00000    45.84567
     6.70000    90.00000     0.00000    45.84567
     6.80000    90.00000     0.00000    45.84567
     6.90000    90.00000     0.00000    45.84567
     7.00000    90.00000     0.00000    45.84567
     7.10000    90.00000     0.00000    45.84567
     7.20000    90.00000     0.00000    45.84567
     7.30000    90.00000     0.00000    45.84567
     7.40000    90.00000     0.00000    45.84567
     7.50000    90.00000     0.00000    45.84567
     7.60000    90.00000     0.00000    45.84567
     7.70000    90.00000     0.00000    45.84567
     7.80000    90.00000     0.00000    45.84567
     7.90000    90.00000     0.00000    45.84567
     8.00000    90.00000     0.00000    45.84567
     8.10000    90.00000     0.00000    45.84567
     8.20000    90.00000     0.00000    45.84567
     8.30000    90.00000     0.00000    45.84567
     8.40000    90.00000     0.00000    45.84567
     8.50000    90.00000     0.00000    45.84567
     8.60000    90.00000     0.00000    45.84567
     8.70000    90.00000     0.00000    45.84567
     8.80000    90.00000     0.00000    45.84567
     8.90000    90.00000     0.00000    45.84567
     9.00000    90.00000     0.00000    45.84567
     9.10000    90.00000     0.00000    45.84567
     9.20000    90.00000     0.00000    45.84567
     9.30000    90.00000     0.00000    45.84567
     9.40000    90.00000     0.00000    45.84567
     9.50000    90.00000     0.00000    45.84567
     9.60000    90.00000     0.00000    45.84567
     9.70000    90.00000     0.00000    45.84567
     9.80000    90.00000     0.00000    45.84567
     9.90000    90.00000     0.00000    45.84567
    10.00000    90.00000     0.00000    45.84567
    10.10000    90.00000     0.00000    45.84567
    10.20000    90.00000     0.00000    45.84567
    10.30000    90.00000     0.00000    45.84567
    10.40000    90.00000     0.00000    45.84567
    10.50000    90.00000     0.00000    45.84567
    10.60000    90.00000     0.00000    45.84567
    10.70000    90.00000     0.00000    45.84567
    10.80000    90.00000     0.00000    45.84567
    10.90000    90.00000     0.00000    45.84567
    11.00000    90.00000     0.00000    45.84567
    11.10000    90.00000     0.00000    45.84567
    11.20000    90.00000     0.00000    45.84567
    11.30000    90.00000     0.00000    45.84567
    11.40000    90.00000     0.00000    45.84567
    11.50000    90.00000     0.00000    45.84567
    11.60000    90.00000     0.00000    45.84567
    11.70000    90.00000     0.00000    45.84567
    11.80000    90.00000     0.00000    45.84567
    11.90000    90.00000     0.00000    45.84567
    12.00000    90.00000     0.00000    45.84567
    12.10000    90.00000     0.00000    45.84567
    12.20000    90.00000     0.00000    45.84567
    12.30000    90.00000     0.00000    45.84567
    12.40000    90.00000     0.00000    45.84567
    12.50000    90.00000     0.00000    45.84567
    12.60000    90.00000     0.00000    45.84567
    12.70000    90.00000     0.00000    45.84567
    12.80000    90.00000     0.00000    45.84567
    12.90000    90.00000     0.00000    45.84567
    13.00000    90.00000     0.00000    45.84567
    13.10000    90.00000     0.00000    45.84567
    13.20000    90.00000     0.00000    45.84567
    13.30000    90.00000     0.00000    45.84567
    13.40000    90.00000     0.00000    45.84567
    13.50000    90.00000     0.00000    45.84567
    13.60000    90.00000     0.00000    45.84567
    13.70000    90.00000     0.00000    45.84567
    13.80000    90.00000     0.00000    45.84567
    13.90000    90.00000     0.00000    45.84567
    14.00000    90.00000     0.00000    45.84567
    14.10000    90.00000     0.00000    45.84567
    14.20000    90.00000     0.00000    45.84567
    14.30000    90.00000     0.00000    45.84567
    14.40000    90.00000     0.00000    45.84567
    14.50000    90.00000     0.00000    45.84567
    14.60000    90.00000     0.00000    45.84567
    14.70000    90.00000     0.00000    45.84567
    14.80000    90.00000     0.00000    45.84567
    14.90000    90.00000     0.00000    45.84567
    15.00000    90.00000     0.00000    45.84567
    15.10000    90.00000     0.00000    45.84567
    15.20000    90.00000     0.00000    45.84567
