 # applied field (T), theta (degree), phi (degree), abs for RE 1-2
     0.00000   180.00000   360.00000     0.02913     0.00000     0.00000     0.00000
     0.10000   178.09829   180.00000     0.02914     0.00000     0.00000     0.00000
     0.20000   175.73068   180.00000     0.02920     0.00000     0.00000     0.00000
     0.30000   173.84255   180.00000     0.02928     0.00000     0.00000     0.00000
     0.40000   171.96632   180.00000     0.02939     0.00000     0.00000     0.00000
     0.50000   169.64676   180.00000     0.02957     0.00000     0.00000     0.00000
     0.60000   167.80957   180.00000     0.02974     0.00000     0.00000     0.00000
     0.70000   165.99474   180.00000     0.02994     0.00000     0.00000     0.00000
     0.80000   163.76545   180.00000     0.03022     0.00000     0.00000     0.00000
     0.90000   162.01056   180.00000     0.03048     0.00000     0.00000     0.00000
     1.00000   160.28601   180.00000     0.03077     0.00000     0.00000     0.00000
     1.10000   158.17924   180.00000     0.03116     0.00000     0.00000     0.00000
     1.20000   156.52932   180.00000     0.03150     0.00000     0.00000     0.00000
     1.30000   154.91482   180.00000     0.03186     0.00000     0.00000     0.00000
     1.40000   152.95120   180.00000     0.03234     0.00000     0.00000     0.00000
     1.50000   151.41959   180.00000     0.03275     0.00000     0.00000     0.00000
     1.60000   149.56128   180.00000     0.03329     0.00000     0.00000     0.00000
     1.70000   148.11493   180.00000     0.03375     0.00000     0.00000     0.00000
     1.80000   146.70666   180.00000     0.03422     0.00000     0.00000     0.00000
     1.90000   145.00244   180.00000     0.03483     0.00000     0.00000     0.00000
     2.00000   143.67900   180.00000     0.03534     0.00000     0.00000     0.00000
     2.10000   142.39265   180.00000     0.03587     0.00000     0.00000     0.00000
     2.20000   140.83858   180.00000     0.03654     0.00000     0.00000     0.00000
     2.30000   139.63340   180.00000     0.03710     0.00000     0.00000     0.00000
     2.40000   138.46318   180.00000     0.03767     0.00000     0.00000     0.00000
     2.50000   137.05069   180.00000     0.03840     0.00000     0.00000     0.00000
     2.60000   135.95604   180.00000     0.03900     0.00000     0.00000     0.00000
     2.70000   134.89359   180.00000     0.03961     0.00000     0.00000     0.00000
     2.80000   133.61157   180.00000     0.04038     0.00000     0.00000     0.00000
     2.90000   132.61815   180.00000     0.04101     0.00000     0.00000     0.00000
     3.00000   131.65393   180.00000     0.04165     0.00000     0.00000     0.00000
     3.10000   130.49026   180.00000     0.04246     0.00000     0.00000     0.00000
     3.20000   129.58828   180.00000     0.04312     0.00000     0.00000     0.00000
     3.30000   128.49939   180.00000     0.04395     0.00000     0.00000     0.00000
     3.40000   127.65506   180.00000     0.04463     0.00000     0.00000     0.00000
     3.50000   126.83493   180.00000     0.04531     0.00000     0.00000     0.00000
     3.60000   125.84421   180.00000     0.04617     0.00000     0.00000     0.00000
     3.70000   125.07542   180.00000     0.04686     0.00000     0.00000     0.00000
     3.80000   124.32816   180.00000     0.04756     0.00000     0.00000     0.00000
     3.90000   123.42469   180.00000     0.04844     0.00000     0.00000     0.00000
     4.00000   122.72300   180.00000     0.04915     0.00000     0.00000     0.00000
     4.10000   121.87408   180.00000     0.05004     0.00000     0.00000     0.00000
     4.20000   121.21430   180.00000     0.05076     0.00000     0.00000     0.00000
     4.30000   120.57207   180.00000     0.05148     0.00000     0.00000     0.00000
     4.40000   119.79432   180.00000     0.05239     0.00000     0.00000     0.00000
     4.50000   119.18924   180.00000     0.05312     0.00000     0.00000     0.00000
     4.60000   118.45595   180.00000     0.05403     0.00000     0.00000     0.00000
     4.70000   117.88505   180.00000     0.05477     0.00000     0.00000     0.00000
     4.80000   117.32847   180.00000     0.05550     0.00000     0.00000     0.00000
     4.90000   116.65325   180.00000     0.05643     0.00000     0.00000     0.00000
     5.00000   116.12701   180.00000     0.05716     0.00000     0.00000     0.00000
     5.10000   115.48812   180.00000     0.05809     0.00000     0.00000     0.00000
     5.20000   114.98985   180.00000     0.05883     0.00000     0.00000     0.00000
     5.30000   114.50332   180.00000     0.05958     0.00000     0.00000     0.00000
     5.40000   113.91202   180.00000     0.06051     0.00000     0.00000     0.00000
     5.50000   113.45040   180.00000     0.06126     0.00000     0.00000     0.00000
     5.60000   112.88898   180.00000     0.06219     0.00000     0.00000     0.00000
     5.70000   112.45040   180.00000     0.06293     0.00000     0.00000     0.00000
     5.80000   111.91663   180.00000     0.06387     0.00000     0.00000     0.00000
     5.90000   111.49938   180.00000     0.06461     0.00000     0.00000     0.00000
     6.00000   111.09111   180.00000     0.06536     0.00000     0.00000     0.00000
     6.10000   110.59373   180.00000     0.06629     0.00000     0.00000     0.00000
     6.20000   110.20459   180.00000     0.06704     0.00000     0.00000     0.00000
     6.30000   109.73020   180.00000     0.06797     0.00000     0.00000     0.00000
     6.40000   109.35884   180.00000     0.06871     0.00000     0.00000     0.00000
     6.50000   108.90582   180.00000     0.06965     0.00000     0.00000     0.00000
     6.60000   108.55100   180.00000     0.07039     0.00000     0.00000     0.00000
     6.70000   108.11789   180.00000     0.07131     0.00000     0.00000     0.00000
     6.80000   107.77848   180.00000     0.07205     0.00000     0.00000     0.00000
     6.90000   107.36393   180.00000     0.07298     0.00000     0.00000     0.00000
     7.00000   107.03892   180.00000     0.07371     0.00000     0.00000     0.00000
     7.10000   106.72000   180.00000     0.07445     0.00000     0.00000     0.00000
     7.20000   106.33015   180.00000     0.07537     0.00000     0.00000     0.00000
     7.30000   106.02430   180.00000     0.07610     0.00000     0.00000     0.00000
     7.40000   105.65022   180.00000     0.07701     0.00000     0.00000     0.00000
     7.50000   105.35662   180.00000     0.07774     0.00000     0.00000     0.00000
     7.60000   104.99731   180.00000     0.07865     0.00000     0.00000     0.00000
     7.70000   104.71521   180.00000     0.07937     0.00000     0.00000     0.00000
     7.80000   104.36978   180.00000     0.08028     0.00000     0.00000     0.00000
     7.90000   104.09849   180.00000     0.08099     0.00000     0.00000     0.00000
     8.00000   103.76613   180.00000     0.08189     0.00000     0.00000     0.00000
     8.10000   103.44068   180.00000     0.08279     0.00000     0.00000     0.00000
     8.20000   103.18496   180.00000     0.08349     0.00000     0.00000     0.00000
     8.30000   102.87143   180.00000     0.08438     0.00000     0.00000     0.00000
     8.40000   102.62501   180.00000     0.08509     0.00000     0.00000     0.00000
     8.50000   102.32274   180.00000     0.08597     0.00000     0.00000     0.00000
     8.60000   102.08512   180.00000     0.08666     0.00000     0.00000     0.00000
     8.70000   101.79350   180.00000     0.08754     0.00000     0.00000     0.00000
     8.80000   101.56421   180.00000     0.08823     0.00000     0.00000     0.00000
     8.90000   101.28268   180.00000     0.08910     0.00000     0.00000     0.00000
     9.00000   101.00652   180.00000     0.08996     0.00000     0.00000     0.00000
     9.10000   100.78934   180.00000     0.09064     0.00000     0.00000     0.00000
     9.20000   100.52250   180.00000     0.09149     0.00000     0.00000     0.00000
     9.30000   100.31261   180.00000     0.09217     0.00000     0.00000     0.00000
     9.40000   100.05463   180.00000     0.09301     0.00000     0.00000     0.00000
     9.50000    99.80137   180.00000     0.09385     0.00000     0.00000     0.00000
     9.60000    99.60215   180.00000     0.09452     0.00000     0.00000     0.00000
     9.70000    99.35712   180.00000     0.09535     0.00000     0.00000     0.00000
     9.80000    99.11647   180.00000     0.09618     0.00000     0.00000     0.00000
     9.90000    98.92718   180.00000     0.09683     0.00000     0.00000     0.00000
    10.00000    98.69420   180.00000     0.09764     0.00000     0.00000     0.00000
    10.10000    98.46532   180.00000     0.09846     0.00000     0.00000     0.00000
    10.20000    98.28529   180.00000     0.09910     0.00000     0.00000     0.00000
    10.30000    98.06357   180.00000     0.09990     0.00000     0.00000     0.00000
    10.40000    97.84569   180.00000     0.10070     0.00000     0.00000     0.00000
    10.50000    97.67434   180.00000     0.10132     0.00000     0.00000     0.00000
    10.60000    97.46318   180.00000     0.10211     0.00000     0.00000     0.00000
    10.70000    97.25563   180.00000     0.10289     0.00000     0.00000     0.00000
    10.80000    97.05161   180.00000     0.10367     0.00000     0.00000     0.00000
    10.90000    96.89122   180.00000     0.10428     0.00000     0.00000     0.00000
    11.00000    96.69340   180.00000     0.10504     0.00000     0.00000     0.00000
    11.10000    96.49891   180.00000     0.10580     0.00000     0.00000     0.00000
    11.20000    96.30769   180.00000     0.10656     0.00000     0.00000     0.00000
    11.30000    96.11967   180.00000     0.10731     0.00000     0.00000     0.00000
    11.40000    95.97197   180.00000     0.10789     0.00000     0.00000     0.00000
    11.50000    95.78960   180.00000     0.10863     0.00000     0.00000     0.00000
    11.60000    95.61028   180.00000     0.10936     0.00000     0.00000     0.00000
    11.70000    95.43395   180.00000     0.11009     0.00000     0.00000     0.00000
    11.80000    95.26056   180.00000     0.11081     0.00000     0.00000     0.00000
    11.90000    95.09005   180.00000     0.11152     0.00000     0.00000     0.00000
    12.00000    94.92239   180.00000     0.11223     0.00000     0.00000     0.00000
    12.10000    94.79088   180.00000     0.11278     0.00000     0.00000     0.00000
    12.20000    94.62824   180.00000     0.11348     0.00000     0.00000     0.00000
    12.30000    94.46833   180.00000     0.11416     0.00000     0.00000     0.00000
    12.40000    94.31109   180.00000     0.11485     0.00000     0.00000     0.00000
    12.50000    94.15650   180.00000     0.11552     0.00000     0.00000     0.00000
    12.60000    94.00450   180.00000     0.11619     0.00000     0.00000     0.00000
    12.70000    93.85507   180.00000     0.11686     0.00000     0.00000     0.00000
    12.80000    93.70818   180.00000     0.11751     0.00000     0.00000     0.00000
    12.90000    93.56377   180.00000     0.11817     0.00000     0.00000     0.00000
    13.00000    93.42184   180.00000     0.11881     0.00000     0.00000     0.00000
    13.10000    93.28234   180.00000     0.11945     0.00000     0.00000     0.00000
    13.20000    93.14524   180.00000     0.12008     0.00000     0.00000     0.00000
    13.30000    92.98297   180.00000     0.12084     0.00000     0.00000     0.00000
    13.40000    92.85103   180.00000     0.12145     0.00000     0.00000     0.00000
    13.50000    92.72141   180.00000     0.12206     0.00000     0.00000     0.00000
    13.60000    92.59409   180.00000     0.12267     0.00000     0.00000     0.00000
    13.70000    92.46902   180.00000     0.12326     0.00000     0.00000     0.00000
    13.80000    92.34620   180.00000     0.12385     0.00000     0.00000     0.00000
    13.90000    92.20071   180.00000     0.12456     0.00000     0.00000     0.00000
    14.00000    92.08272   180.00000     0.12514     0.00000     0.00000     0.00000
    14.10000    91.96690   180.00000     0.12571     0.00000     0.00000     0.00000
    14.20000    91.85323   180.00000     0.12627     0.00000     0.00000     0.00000
    14.30000    91.71850   180.00000     0.12695     0.00000     0.00000     0.00000
    14.40000    91.60947   180.00000     0.12749     0.00000     0.00000     0.00000
    14.50000    91.48020   180.00000     0.12815     0.00000     0.00000     0.00000
    14.60000    91.37573   180.00000     0.12869     0.00000     0.00000     0.00000
    14.70000    91.27331   180.00000     0.12921     0.00000     0.00000     0.00000
    14.80000    91.15182   180.00000     0.12985     0.00000     0.00000     0.00000
    14.90000    91.05384   180.00000     0.13036     0.00000     0.00000     0.00000
    15.00000    90.93756   180.00000     0.13097     0.00000     0.00000     0.00000
    15.10000    90.84394   180.00000     0.13147     0.00000     0.00000     0.00000
    15.20000    90.73281   180.00000     0.13207     0.00000     0.00000     0.00000
    15.30000    90.62444   180.00000     0.13266     0.00000     0.00000     0.00000
    15.40000    90.53741   180.00000     0.13313     0.00000     0.00000     0.00000
    15.50000    90.43405   180.00000     0.13370     0.00000     0.00000     0.00000
    15.60000    90.33339   180.00000     0.13427     0.00000     0.00000     0.00000
    15.70000    90.25281   180.00000     0.13472     0.00000     0.00000     0.00000
    15.80000    90.15705   180.00000     0.13526     0.00000     0.00000     0.00000
    15.90000    90.06392   180.00000     0.13580     0.00000     0.00000     0.00000
    16.00000    89.97341   180.00000     0.13632     0.00000     0.00000     0.00000
    16.10000    89.88550   180.00000     0.13684     0.00000     0.00000     0.00000
    16.20000    89.80016   180.00000     0.13735     0.00000     0.00000     0.00000
    16.30000    89.71738   180.00000     0.13785     0.00000     0.00000     0.00000
    16.40000    89.63714   180.00000     0.13834     0.00000     0.00000     0.00000
    16.50000    89.55943   180.00000     0.13882     0.00000     0.00000     0.00000
    16.60000    89.48423   180.00000     0.13929     0.00000     0.00000     0.00000
    16.70000    89.41152   180.00000     0.13975     0.00000     0.00000     0.00000
    16.80000    89.34128   180.00000     0.14020     0.00000     0.00000     0.00000
    16.90000    89.26087   180.00000     0.14073     0.00000     0.00000     0.00000
    17.00000    89.19592   180.00000     0.14116     0.00000     0.00000     0.00000
    17.10000    89.12158   180.00000     0.14167     0.00000     0.00000     0.00000
    17.20000    89.06183   180.00000     0.14209     0.00000     0.00000     0.00000
    17.30000    88.99347   180.00000     0.14257     0.00000     0.00000     0.00000
    17.40000    88.93885   180.00000     0.14296     0.00000     0.00000     0.00000
    17.50000    88.87639   180.00000     0.14343     0.00000     0.00000     0.00000
    17.60000    88.81705   180.00000     0.14388     0.00000     0.00000     0.00000
    17.70000    88.76081   180.00000     0.14432     0.00000     0.00000     0.00000
    17.80000    88.70764   180.00000     0.14475     0.00000     0.00000     0.00000
    17.90000    88.65753   180.00000     0.14516     0.00000     0.00000     0.00000
    18.00000    88.61044   180.00000     0.14557     0.00000     0.00000     0.00000
    18.10000    88.56635   180.00000     0.14596     0.00000     0.00000     0.00000
    18.20000    88.52523   180.00000     0.14635     0.00000     0.00000     0.00000
    18.30000    88.48019   180.00000     0.14678     0.00000     0.00000     0.00000
    18.40000    88.44533   180.00000     0.14714     0.00000     0.00000     0.00000
    18.50000    88.40733   180.00000     0.14755     0.00000     0.00000     0.00000
    18.60000    88.37302   180.00000     0.14795     0.00000     0.00000     0.00000
    18.70000    88.34235   180.00000     0.14833     0.00000     0.00000     0.00000
    18.80000    88.31527   180.00000     0.14870     0.00000     0.00000     0.00000
    18.90000    88.29174   180.00000     0.14906     0.00000     0.00000     0.00000
    19.00000    88.27172   180.00000     0.14940     0.00000     0.00000     0.00000
    19.10000    88.25176   180.00000     0.14979     0.00000     0.00000     0.00000
    19.20000    88.23901   180.00000     0.15010     0.00000     0.00000     0.00000
    19.30000    88.22707   180.00000     0.15046     0.00000     0.00000     0.00000
    19.40000    88.21928   180.00000     0.15079     0.00000     0.00000     0.00000
    19.50000    88.21395   180.00000     0.15116     0.00000     0.00000     0.00000
    19.60000    88.21463   180.00000     0.15146     0.00000     0.00000     0.00000
    19.70000    88.21850   180.00000     0.15180     0.00000     0.00000     0.00000
    19.80000    88.22706   180.00000     0.15211     0.00000     0.00000     0.00000
    19.90000    88.24042   180.00000     0.15245     0.00000     0.00000     0.00000
    20.00000    88.25842   180.00000     0.15273     0.00000     0.00000     0.00000
    20.10000    88.28305   180.00000     0.15306     0.00000     0.00000     0.00000
    20.20000    88.31199   180.00000     0.15333     0.00000     0.00000     0.00000
    20.30000    88.34789   180.00000     0.15362     0.00000     0.00000     0.00000
    20.40000    88.39194   180.00000     0.15392     0.00000     0.00000     0.00000
    20.50000    88.44530   180.00000     0.15422     0.00000     0.00000     0.00000
    20.60000    88.50550   180.00000     0.15449     0.00000     0.00000     0.00000
    20.70000    88.57622   180.00000     0.15475     0.00000     0.00000     0.00000
    20.80000    88.66301   180.00000     0.15503     0.00000     0.00000     0.00000
    20.90000    88.76308   180.00000     0.15529     0.00000     0.00000     0.00000
    21.00000    88.88262   180.00000     0.15554     0.00000     0.00000     0.00000
    21.10000    89.02947   180.00000     0.15579     0.00000     0.00000     0.00000
    21.20000    89.22598   180.00000     0.15604     0.00000     0.00000     0.00000
    21.30000    89.52015   180.00000     0.15628     0.00000     0.00000     0.00000
    21.40000    90.00000   180.00000     0.15636     0.00000     0.00000     0.00000
    21.50000    90.00000   180.00000     0.15623     0.00000     0.00000     0.00000
    21.60000    90.00000   180.00000     0.15611     0.00000     0.00000     0.00000
    21.70000    90.00000   180.00000     0.15598     0.00000     0.00000     0.00000
    21.80000    90.00000   180.00000     0.15585     0.00000     0.00000     0.00000
    21.90000    90.00000   180.00000     0.15572     0.00000     0.00000     0.00000
    22.00000    90.00000   180.00000     0.15559     0.00000     0.00000     0.00000
    22.10000    90.00000   180.00000     0.15546     0.00000     0.00000     0.00000
    22.20000    90.00000   180.00000     0.15534     0.00000     0.00000     0.00000
    22.30000    90.00000   180.00000     0.15521     0.00000     0.00000     0.00000
    22.40000    90.00000   180.00000     0.15508     0.00000     0.00000     0.00000
    22.50000    90.00000   180.00000     0.15495     0.00000     0.00000     0.00000
    22.60000    90.00000   180.00000     0.15482     0.00000     0.00000     0.00000
    22.70000    90.00000   180.00000     0.15469     0.00000     0.00000     0.00000
    22.80000    90.00000   180.00000     0.15457     0.00000     0.00000     0.00000
    22.90000    90.00000   180.00000     0.15444     0.00000     0.00000     0.00000
    23.00000    90.00000   180.00000     0.15431     0.00000     0.00000     0.00000
    23.10000    90.00000   180.00000     0.15418     0.00000     0.00000     0.00000
    23.20000    90.00000   180.00000     0.15405     0.00000     0.00000     0.00000
    23.30000    90.00000   180.00000     0.15392     0.00000     0.00000     0.00000
