 # applied field (T), theta (degree), phi (degree), abs for RE 1-2
     0.00000     0.00000     0.00000     4.70498     0.00000     0.00000     0.00000
     0.10000     0.27306   360.00000     4.70498     0.00000     0.00000     0.00000
     0.20000     0.54614   360.00000     4.70497     0.00000     0.00000     0.00000
     0.30000     0.86419   360.00000     4.70496     0.00000     0.00000     0.00000
     0.40000     1.13735   360.00000     4.70495     0.00000     0.00000     0.00000
     0.50000     1.41058   360.00000     4.70493     0.00000     0.00000     0.00000
     0.60000     1.68389   360.00000     4.70491     0.00000     0.00000     0.00000
     0.70000     2.00230   360.00000     4.70488     0.00000     0.00000     0.00000
     0.80000     2.27584   360.00000     4.70485     0.00000     0.00000     0.00000
     0.90000     2.54951   360.00000     4.70482     0.00000     0.00000     0.00000
     1.00000     2.82332   360.00000     4.70478     0.00000     0.00000     0.00000
     1.10000     3.09730   360.00000     4.70474     0.00000     0.00000     0.00000
     1.20000     3.41659   360.00000     4.70469     0.00000     0.00000     0.00000
     1.30000     3.69097   360.00000     4.70465     0.00000     0.00000     0.00000
     1.40000     3.96556   360.00000     4.70460     0.00000     0.00000     0.00000
     1.50000     4.28563   360.00000     4.70453     0.00000     0.00000     0.00000
     1.60000     4.56073   360.00000     4.70447     0.00000     0.00000     0.00000
     1.70000     4.83610   360.00000     4.70441     0.00000     0.00000     0.00000
     1.80000     5.11174   360.00000     4.70434     0.00000     0.00000     0.00000
     1.90000     5.43311   360.00000     4.70426     0.00000     0.00000     0.00000
     2.00000     5.70941   360.00000     4.70419     0.00000     0.00000     0.00000
     2.10000     5.98603   360.00000     4.70411     0.00000     0.00000     0.00000
     2.20000     6.30859   360.00000     4.70402     0.00000     0.00000     0.00000
     2.30000     6.58597   360.00000     4.70393     0.00000     0.00000     0.00000
     2.40000     6.90946   360.00000     4.70383     0.00000     0.00000     0.00000
     2.50000     7.18767   360.00000     4.70374     0.00000     0.00000     0.00000
     2.60000     7.46629   360.00000     4.70364     0.00000     0.00000     0.00000
     2.70000     7.79128   360.00000     4.70352     0.00000     0.00000     0.00000
     2.80000     8.07083   360.00000     4.70342     0.00000     0.00000     0.00000
     2.90000     8.39696   360.00000     4.70329     0.00000     0.00000     0.00000
     3.00000     8.67752   360.00000     4.70318     0.00000     0.00000     0.00000
     3.10000     9.00486   360.00000     4.70305     0.00000     0.00000     0.00000
     3.20000     9.33289   360.00000     4.70291     0.00000     0.00000     0.00000
     3.30000     9.61513   360.00000     4.70279     0.00000     0.00000     0.00000
     3.40000     9.94450   360.00000     4.70264     0.00000     0.00000     0.00000
     3.50000    10.22793   360.00000     4.70251     0.00000     0.00000     0.00000
     3.60000    10.55872   360.00000     4.70235     0.00000     0.00000     0.00000
     3.70000    10.89032   360.00000     4.70219     0.00000     0.00000     0.00000
     3.80000    11.22273   360.00000     4.70202     0.00000     0.00000     0.00000
     3.90000    11.50884   360.00000     4.70188     0.00000     0.00000     0.00000
     4.00000    11.84285   360.00000     4.70170     0.00000     0.00000     0.00000
     4.10000    12.17774   360.00000     4.70152     0.00000     0.00000     0.00000
     4.20000    12.51354   360.00000     4.70134     0.00000     0.00000     0.00000
     4.30000    12.85028   360.00000     4.70115     0.00000     0.00000     0.00000
     4.40000    13.18797   360.00000     4.70096     0.00000     0.00000     0.00000
     4.50000    13.52664   360.00000     4.70076     0.00000     0.00000     0.00000
     4.60000    13.86631   360.00000     4.70056     0.00000     0.00000     0.00000
     4.70000    14.20700   360.00000     4.70036     0.00000     0.00000     0.00000
     4.80000    14.59711   360.00000     4.70012     0.00000     0.00000     0.00000
     4.90000    14.94006   360.00000     4.69991     0.00000     0.00000     0.00000
     5.00000    15.28410   360.00000     4.69969     0.00000     0.00000     0.00000
     5.10000    15.62925   360.00000     4.69947     0.00000     0.00000     0.00000
     5.20000    16.02456   360.00000     4.69921     0.00000     0.00000     0.00000
     5.30000    16.37214   360.00000     4.69898     0.00000     0.00000     0.00000
     5.40000    16.77029   360.00000     4.69871     0.00000     0.00000     0.00000
     5.50000    17.17000   360.00000     4.69844     0.00000     0.00000     0.00000
     5.60000    17.52151   360.00000     4.69819     0.00000     0.00000     0.00000
     5.70000    17.92421   360.00000     4.69791     0.00000     0.00000     0.00000
     5.80000    18.32855   360.00000     4.69763     0.00000     0.00000     0.00000
     5.90000    18.73455   360.00000     4.69734     0.00000     0.00000     0.00000
     6.00000    19.14223   360.00000     4.69704     0.00000     0.00000     0.00000
     6.10000    19.60246   360.00000     4.69670     0.00000     0.00000     0.00000
     6.20000    20.01381   360.00000     4.69640     0.00000     0.00000     0.00000
     6.30000    20.42692   360.00000     4.69609     0.00000     0.00000     0.00000
     6.40000    20.89334   360.00000     4.69574     0.00000     0.00000     0.00000
     6.50000    21.36204   360.00000     4.69539     0.00000     0.00000     0.00000
     6.60000    21.83305   360.00000     4.69503     0.00000     0.00000     0.00000
     6.70000    22.30640   360.00000     4.69467     0.00000     0.00000     0.00000
     6.80000    22.78211   360.00000     4.69430     0.00000     0.00000     0.00000
     6.90000    23.31307   360.00000     4.69390     0.00000     0.00000     0.00000
     7.00000    23.79385   360.00000     4.69352     0.00000     0.00000     0.00000
     7.10000    24.33047   360.00000     4.69311     0.00000     0.00000     0.00000
     7.20000    24.87012   360.00000     4.69269     0.00000     0.00000     0.00000
     7.30000    25.46687   360.00000     4.69222     0.00000     0.00000     0.00000
     7.40000    26.06731   360.00000     4.69176     0.00000     0.00000     0.00000
     7.50000    26.67148   360.00000     4.69129     0.00000     0.00000     0.00000
     7.60000    27.27937   360.00000     4.69082     0.00000     0.00000     0.00000
     7.70000    27.94644   360.00000     4.69031     0.00000     0.00000     0.00000
     7.80000    28.61796   360.00000     4.68980     0.00000     0.00000     0.00000
     7.90000    29.35012   360.00000     4.68925     0.00000     0.00000     0.00000
     8.00000    30.14411   360.00000     4.68866     0.00000     0.00000     0.00000
     8.10000    30.94408   360.00000     4.68808     0.00000     0.00000     0.00000
     8.20000    31.86504   360.00000     4.68742     0.00000     0.00000     0.00000
     8.30000    32.79362   360.00000     4.68677     0.00000     0.00000     0.00000
     8.40000    33.84676   360.00000     4.68605     0.00000     0.00000     0.00000
     8.50000    35.02732   360.00000     4.68529     0.00000     0.00000     0.00000
     8.60000    90.00000   360.00000     4.68061     0.00000     0.00000     0.00000
     8.70000    90.00000   360.00000     4.68059     0.00000     0.00000     0.00000
     8.80000    90.00000   360.00000     4.68057     0.00000     0.00000     0.00000
     8.90000    90.00000   360.00000     4.68055     0.00000     0.00000     0.00000
     9.00000    90.00000   360.00000     4.68053     0.00000     0.00000     0.00000
     9.10000    90.00000   360.00000     4.68051     0.00000     0.00000     0.00000
     9.20000    90.00000   360.00000     4.68049     0.00000     0.00000     0.00000
     9.30000    90.00000   360.00000     4.68046     0.00000     0.00000     0.00000
     9.40000    90.00000   360.00000     4.68044     0.00000     0.00000     0.00000
     9.50000    90.00000   360.00000     4.68042     0.00000     0.00000     0.00000
     9.60000    90.00000   360.00000     4.68040     0.00000     0.00000     0.00000
     9.70000    90.00000   360.00000     4.68038     0.00000     0.00000     0.00000
     9.80000    90.00000   360.00000     4.68036     0.00000     0.00000     0.00000
     9.90000    90.00000   360.00000     4.68034     0.00000     0.00000     0.00000
    10.00000    90.00000   360.00000     4.68031     0.00000     0.00000     0.00000
    10.10000    90.00000   360.00000     4.68029     0.00000     0.00000     0.00000
    10.20000    90.00000   360.00000     4.68027     0.00000     0.00000     0.00000
    10.30000    90.00000   360.00000     4.68025     0.00000     0.00000     0.00000
    10.40000    90.00000   360.00000     4.68023     0.00000     0.00000     0.00000
    10.50000    90.00000   360.00000     4.68021     0.00000     0.00000     0.00000
    10.60000    90.00000   360.00000     4.68019     0.00000     0.00000     0.00000
    10.70000    90.00000   360.00000     4.68016     0.00000     0.00000     0.00000
    10.80000    90.00000   360.00000     4.68014     0.00000     0.00000     0.00000
    10.90000    90.00000   360.00000     4.68012     0.00000     0.00000     0.00000
    11.00000    90.00000   360.00000     4.68010     0.00000     0.00000     0.00000
    11.10000    90.00000   360.00000     4.68008     0.00000     0.00000     0.00000
    11.20000    90.00000   360.00000     4.68006     0.00000     0.00000     0.00000
    11.30000    90.00000   360.00000     4.68004     0.00000     0.00000     0.00000
    11.40000    90.00000   360.00000     4.68001     0.00000     0.00000     0.00000
    11.50000    90.00000   360.00000     4.67999     0.00000     0.00000     0.00000
    11.60000    90.00000   360.00000     4.67997     0.00000     0.00000     0.00000
    11.70000    90.00000   360.00000     4.67995     0.00000     0.00000     0.00000
    11.80000    90.00000   360.00000     4.67993     0.00000     0.00000     0.00000
    11.90000    90.00000   360.00000     4.67991     0.00000     0.00000     0.00000
    12.00000    90.00000   360.00000     4.67989     0.00000     0.00000     0.00000
    12.10000    90.00000   360.00000     4.67986     0.00000     0.00000     0.00000
    12.20000    90.00000   360.00000     4.67984     0.00000     0.00000     0.00000
    12.30000    90.00000   360.00000     4.67982     0.00000     0.00000     0.00000
    12.40000    90.00000   360.00000     4.67980     0.00000     0.00000     0.00000
    12.50000    90.00000   360.00000     4.67978     0.00000     0.00000     0.00000
    12.60000    90.00000   360.00000     4.67976     0.00000     0.00000     0.00000
    12.70000    90.00000   360.00000     4.67974     0.00000     0.00000     0.00000
    12.80000    90.00000   360.00000     4.67971     0.00000     0.00000     0.00000
    12.90000    90.00000   360.00000     4.67969     0.00000     0.00000     0.00000
    13.00000    90.00000   360.00000     4.67967     0.00000     0.00000     0.00000
    13.10000    90.00000   360.00000     4.67965     0.00000     0.00000     0.00000
    13.20000    90.00000   360.00000     4.67963     0.00000     0.00000     0.00000
    13.30000    90.00000   360.00000     4.67961     0.00000     0.00000     0.00000
    13.40000    90.00000   360.00000     4.67958     0.00000     0.00000     0.00000
    13.50000    90.00000   360.00000     4.67956     0.00000     0.00000     0.00000
    13.60000    90.00000   360.00000     4.67954     0.00000     0.00000     0.00000
    13.70000    90.00000   360.00000     4.67952     0.00000     0.00000     0.00000
    13.80000    90.00000   360.00000     4.67950     0.00000     0.00000     0.00000
    13.90000    90.00000   360.00000     4.67948     0.00000     0.00000     0.00000
    14.00000    90.00000   360.00000     4.67946     0.00000     0.00000     0.00000
    14.10000    90.00000   360.00000     4.67943     0.00000     0.00000     0.00000
    14.20000    90.00000   360.00000     4.67941     0.00000     0.00000     0.00000
    14.30000    90.00000   360.00000     4.67939     0.00000     0.00000     0.00000
    14.40000    90.00000   360.00000     4.67937     0.00000     0.00000     0.00000
    14.50000    90.00000   360.00000     4.67935     0.00000     0.00000     0.00000
    14.60000    90.00000   360.00000     4.67933     0.00000     0.00000     0.00000
    14.70000    90.00000   360.00000     4.67931     0.00000     0.00000     0.00000
    14.80000    90.00000   360.00000     4.67928     0.00000     0.00000     0.00000
    14.90000    90.00000   360.00000     4.67926     0.00000     0.00000     0.00000
    15.00000    90.00000   360.00000     4.67924     0.00000     0.00000     0.00000
    15.10000    90.00000   360.00000     4.67922     0.00000     0.00000     0.00000
    15.20000    90.00000   360.00000     4.67920     0.00000     0.00000     0.00000
    15.30000    90.00000   360.00000     4.67918     0.00000     0.00000     0.00000
    15.40000    90.00000   360.00000     4.67915     0.00000     0.00000     0.00000
    15.50000    90.00000   360.00000     4.67913     0.00000     0.00000     0.00000
    15.60000    90.00000   360.00000     4.67911     0.00000     0.00000     0.00000
    15.70000    90.00000   360.00000     4.67909     0.00000     0.00000     0.00000
    15.80000    90.00000   360.00000     4.67907     0.00000     0.00000     0.00000
    15.90000    90.00000   360.00000     4.67905     0.00000     0.00000     0.00000
    16.00000    90.00000   360.00000     4.67902     0.00000     0.00000     0.00000
    16.10000    90.00000   360.00000     4.67900     0.00000     0.00000     0.00000
    16.20000    90.00000   360.00000     4.67898     0.00000     0.00000     0.00000
    16.30000    90.00000   360.00000     4.67896     0.00000     0.00000     0.00000
    16.40000    90.00000   360.00000     4.67894     0.00000     0.00000     0.00000
    16.50000    90.00000   360.00000     4.67892     0.00000     0.00000     0.00000
    16.60000    90.00000   360.00000     4.67890     0.00000     0.00000     0.00000
    16.70000    90.00000   360.00000     4.67887     0.00000     0.00000     0.00000
    16.80000    90.00000   360.00000     4.67885     0.00000     0.00000     0.00000
    16.90000    90.00000   360.00000     4.67883     0.00000     0.00000     0.00000
    17.00000    90.00000   360.00000     4.67881     0.00000     0.00000     0.00000
    17.10000    90.00000   360.00000     4.67879     0.00000     0.00000     0.00000
    17.20000    90.00000   360.00000     4.67877     0.00000     0.00000     0.00000
    17.30000    90.00000   360.00000     4.67874     0.00000     0.00000     0.00000
    17.40000    90.00000   360.00000     4.67872     0.00000     0.00000     0.00000
    17.50000    90.00000   360.00000     4.67870     0.00000     0.00000     0.00000
    17.60000    90.00000   360.00000     4.67868     0.00000     0.00000     0.00000
    17.70000    90.00000   360.00000     4.67866     0.00000     0.00000     0.00000
    17.80000    90.00000   360.00000     4.67864     0.00000     0.00000     0.00000
    17.90000    90.00000   360.00000     4.67861     0.00000     0.00000     0.00000
    18.00000    90.00000   360.00000     4.67859     0.00000     0.00000     0.00000
    18.10000    90.00000   360.00000     4.67857     0.00000     0.00000     0.00000
    18.20000    90.00000   360.00000     4.67855     0.00000     0.00000     0.00000
    18.30000    90.00000   360.00000     4.67853     0.00000     0.00000     0.00000
    18.40000    90.00000   360.00000     4.67851     0.00000     0.00000     0.00000
    18.50000    90.00000   360.00000     4.67848     0.00000     0.00000     0.00000
    18.60000    90.00000   360.00000     4.67846     0.00000     0.00000     0.00000
    18.70000    90.00000   360.00000     4.67844     0.00000     0.00000     0.00000
    18.80000    90.00000   360.00000     4.67842     0.00000     0.00000     0.00000
    18.90000    90.00000   360.00000     4.67840     0.00000     0.00000     0.00000
    19.00000    90.00000   360.00000     4.67838     0.00000     0.00000     0.00000
    19.10000    90.00000   360.00000     4.67836     0.00000     0.00000     0.00000
    19.20000    90.00000   360.00000     4.67833     0.00000     0.00000     0.00000
    19.30000    90.00000   360.00000     4.67831     0.00000     0.00000     0.00000
    19.40000    90.00000   360.00000     4.67829     0.00000     0.00000     0.00000
    19.50000    90.00000   360.00000     4.67827     0.00000     0.00000     0.00000
    19.60000    90.00000   360.00000     4.67825     0.00000     0.00000     0.00000
    19.70000    90.00000   360.00000     4.67823     0.00000     0.00000     0.00000
    19.80000    90.00000   360.00000     4.67820     0.00000     0.00000     0.00000
    19.90000    90.00000   360.00000     4.67818     0.00000     0.00000     0.00000
    20.00000    90.00000   360.00000     4.67816     0.00000     0.00000     0.00000
    20.10000    90.00000   360.00000     4.67814     0.00000     0.00000     0.00000
    20.20000    90.00000   360.00000     4.67812     0.00000     0.00000     0.00000
    20.30000    90.00000   360.00000     4.67809     0.00000     0.00000     0.00000
    20.40000    90.00000   360.00000     4.67807     0.00000     0.00000     0.00000
    20.50000    90.00000   360.00000     4.67805     0.00000     0.00000     0.00000
    20.60000    90.00000   360.00000     4.67803     0.00000     0.00000     0.00000
    20.70000    90.00000   360.00000     4.67801     0.00000     0.00000     0.00000
    20.80000    90.00000   360.00000     4.67799     0.00000     0.00000     0.00000
    20.90000    90.00000   360.00000     4.67796     0.00000     0.00000     0.00000
    21.00000    90.00000   360.00000     4.67794     0.00000     0.00000     0.00000
    21.10000    90.00000   360.00000     4.67792     0.00000     0.00000     0.00000
    21.20000    90.00000   360.00000     4.67790     0.00000     0.00000     0.00000
    21.30000    90.00000   360.00000     4.67788     0.00000     0.00000     0.00000
    21.40000    90.00000   360.00000     4.67786     0.00000     0.00000     0.00000
    21.50000    90.00000   360.00000     4.67783     0.00000     0.00000     0.00000
    21.60000    90.00000   360.00000     4.67781     0.00000     0.00000     0.00000
    21.70000    90.00000   360.00000     4.67779     0.00000     0.00000     0.00000
    21.80000    90.00000   360.00000     4.67777     0.00000     0.00000     0.00000
    21.90000    90.00000   360.00000     4.67775     0.00000     0.00000     0.00000
    22.00000    90.00000   360.00000     4.67773     0.00000     0.00000     0.00000
    22.10000    90.00000   360.00000     4.67770     0.00000     0.00000     0.00000
    22.20000    90.00000   360.00000     4.67768     0.00000     0.00000     0.00000
    22.30000    90.00000   360.00000     4.67766     0.00000     0.00000     0.00000
    22.40000    90.00000   360.00000     4.67764     0.00000     0.00000     0.00000
    22.50000    90.00000   360.00000     4.67762     0.00000     0.00000     0.00000
    22.60000    90.00000   360.00000     4.67760     0.00000     0.00000     0.00000
    22.70000    90.00000   360.00000     4.67757     0.00000     0.00000     0.00000
    22.80000    90.00000   360.00000     4.67755     0.00000     0.00000     0.00000
    22.90000    90.00000   360.00000     4.67753     0.00000     0.00000     0.00000
    23.00000    90.00000   360.00000     4.67751     0.00000     0.00000     0.00000
    23.10000    90.00000   360.00000     4.67749     0.00000     0.00000     0.00000
    23.20000    90.00000   360.00000     4.67746     0.00000     0.00000     0.00000
    23.30000    90.00000   360.00000     4.67744     0.00000     0.00000     0.00000
