 # applied field (T), theta (degree), phi (degree), abs for RE 3-4
     0.00000     0.00000     0.00000     0.29482     0.00000     0.00000     0.29482
     0.10000     0.12248   360.00000     0.29483     0.05339   360.00000     0.29483
     0.20000     0.24502   360.00000     0.29483     0.10685   360.00000     0.29484
     0.30000     0.36766   360.00000     0.29485     0.16044   360.00000     0.29486
     0.40000     0.47896   360.00000     0.29486     0.21416   360.00000     0.29488
     0.50000     0.60194   360.00000     0.29488     0.26818   360.00000     0.29491
     0.60000     0.72518   360.00000     0.29491     0.32253   360.00000     0.29496
     0.70000     0.84873   360.00000     0.29495     0.37727   360.00000     0.29500
     0.80000     0.97265   360.00000     0.29498     0.43248   360.00000     0.29506
     0.90000     1.09698   360.00000     0.29503     0.48823   360.00000     0.29513
     1.00000     1.22179   360.00000     0.29508     0.54457   360.00000     0.29520
     1.10000     1.34713   360.00000     0.29513     0.60159   360.00000     0.29528
     1.20000     1.47304   360.00000     0.29519     0.65933   360.00000     0.29537
     1.30000     1.58741   360.00000     0.29524     0.71693   360.00000     0.29545
     1.40000     1.71451   360.00000     0.29531     0.77619   360.00000     0.29555
     1.50000     1.84235   360.00000     0.29538     0.83638   360.00000     0.29566
     1.60000     1.97096   360.00000     0.29546     0.89754   360.00000     0.29577
     1.70000     2.10040   360.00000     0.29555     0.95977   360.00000     0.29590
     1.80000     2.23072   360.00000     0.29563     1.02311   360.00000     0.29603
     1.90000     2.36197   360.00000     0.29573     1.08763   360.00000     0.29617
     2.00000     2.49421   360.00000     0.29582     1.15340   360.00000     0.29631
     2.10000     2.62748   360.00000     0.29593     1.22047   360.00000     0.29646
     2.20000     2.76182   360.00000     0.29603     1.28893   360.00000     0.29662
     2.30000     2.89730   360.00000     0.29615     1.35881   360.00000     0.29679
     2.40000     3.03397   360.00000     0.29626     1.43020   360.00000     0.29696
     2.50000     3.17186   360.00000     0.29638     1.50314   360.00000     0.29714
     2.60000     3.31102   360.00000     0.29651     1.57771   360.00000     0.29733
     2.70000     3.45151   360.00000     0.29664     1.65395   360.00000     0.29752
     2.80000     3.59337   360.00000     0.29677     1.73194   360.00000     0.29772
     2.90000     3.73665   360.00000     0.29691     1.81173   360.00000     0.29793
     3.00000     3.88140   360.00000     0.29705     1.89337   360.00000     0.29814
     3.10000     4.02765   360.00000     0.29720     1.97694   360.00000     0.29835
     3.20000     4.17546   360.00000     0.29735     2.06247   360.00000     0.29858
     3.30000     4.32486   360.00000     0.29750     2.15004   360.00000     0.29881
     3.40000     4.47591   360.00000     0.29766     2.23969   360.00000     0.29904
     3.50000     4.62865   360.00000     0.29782     2.33148   360.00000     0.29928
     3.60000     4.78311   360.00000     0.29799     2.42547   360.00000     0.29953
     3.70000     4.93934   360.00000     0.29816     2.52171   360.00000     0.29978
     3.80000     5.11515   360.00000     0.29836     2.62827   360.00000     0.30008
     3.90000     5.27537   360.00000     0.29854     2.72958   360.00000     0.30034
     4.00000     5.43749   360.00000     0.29872     2.83330   360.00000     0.30061
     4.10000     5.60155   360.00000     0.29890     2.93949   360.00000     0.30088
     4.20000     5.76759   360.00000     0.29909     3.04820   360.00000     0.30116
     4.30000     5.95515   360.00000     0.29931     3.16970   360.00000     0.30149
     4.40000     6.12561   360.00000     0.29951     3.28404   360.00000     0.30178
     4.50000     6.29817   360.00000     0.29970     3.40105   360.00000     0.30206
     4.60000     6.49353   360.00000     0.29994     3.53247   360.00000     0.30241
     4.70000     6.67076   360.00000     0.30014     3.65543   360.00000     0.30271
     4.80000     6.85020   360.00000     0.30034     3.78121   360.00000     0.30301
     4.90000     7.05377   360.00000     0.30058     3.92309   360.00000     0.30337
     5.00000     7.23811   360.00000     0.30079     4.05513   360.00000     0.30368
     5.10000     7.44752   360.00000     0.30104     4.20447   360.00000     0.30405
     5.20000     7.63692   360.00000     0.30125     4.34296   360.00000     0.30437
     5.30000     7.85234   360.00000     0.30151     4.49998   360.00000     0.30474
     5.40000     8.04694   360.00000     0.30173     4.64513   360.00000     0.30506
     5.50000     8.26854   360.00000     0.30199     4.81005   360.00000     0.30545
     5.60000     8.46847   360.00000     0.30221     4.96202   360.00000     0.30577
     5.70000     8.69639   360.00000     0.30247     5.13504   360.00000     0.30616
     5.80000     8.90178   360.00000     0.30269     5.29401   360.00000     0.30649
     5.90000     9.13617   360.00000     0.30296     5.47533   360.00000     0.30688
     6.00000     9.37411   360.00000     0.30323     5.66121   360.00000     0.30728
     6.10000     9.61563   360.00000     0.30350     5.85170   360.00000     0.30767
     6.20000     9.86078   360.00000     0.30377     6.04684   360.00000     0.30807
     6.30000    10.08098   360.00000     0.30400     6.22489   360.00000     0.30841
     6.40000    10.33292   360.00000     0.30427     6.42880   360.00000     0.30881
     6.50000    10.58856   360.00000     0.30454     6.63750   360.00000     0.30921
     6.60000    10.84795   360.00000     0.30482     6.85103   360.00000     0.30961
     6.70000    11.11110   360.00000     0.30509     7.06945   360.00000     0.31001
     6.80000    11.37805   360.00000     0.30537     7.29278   360.00000     0.31041
     6.90000    11.68074   360.00000     0.30568     7.54716   360.00000     0.31087
     7.00000    11.95591   360.00000     0.30596     7.78119   360.00000     0.31127
     7.10000    12.23494   360.00000     0.30623     8.02024   360.00000     0.31167
     7.20000    12.51786   360.00000     0.30651     8.26437   360.00000     0.31207
     7.30000    12.83898   360.00000     0.30682     8.54277   360.00000     0.31253
     7.40000    13.13029   360.00000     0.30709     8.79787   360.00000     0.31292
     7.50000    13.46109   360.00000     0.30741     9.08894   360.00000     0.31338
     7.60000    13.76086   360.00000     0.30768     9.35516   360.00000     0.31377
     7.70000    14.10139   360.00000     0.30799     9.65903   360.00000     0.31422
     7.80000    14.44715   360.00000     0.30830     9.96979   360.00000     0.31466
     7.90000    14.79814   360.00000     0.30861    10.28746   360.00000     0.31510
     8.00000    15.15437   360.00000     0.30891    10.61208   360.00000     0.31554
     8.10000    15.51585   360.00000     0.30922    10.94367   360.00000     0.31597
     8.20000    15.88257   360.00000     0.30952    11.28224   360.00000     0.31640
     8.30000    16.25455   360.00000     0.30981    11.62782   360.00000     0.31682
     8.40000    16.63176   360.00000     0.31011    11.98042   360.00000     0.31723
     8.50000    17.05652   360.00000     0.31044    12.37974   360.00000     0.31770
     8.60000    17.44487   360.00000     0.31073    12.74729   360.00000     0.31810
     8.70000    17.88218   360.00000     0.31105    13.16350   360.00000     0.31856
     8.80000    18.32611   360.00000     0.31137    13.58867   360.00000     0.31900
     8.90000    18.77665   360.00000     0.31168    14.02278   360.00000     0.31943
     9.00000    19.23375   360.00000     0.31199    14.46584   360.00000     0.31986
     9.10000    19.69739   360.00000     0.31230    14.91781   360.00000     0.32027
     9.20000    20.16753   360.00000     0.31260    15.37869   360.00000     0.32068
     9.30000    20.69246   360.00000     0.31293    15.89623   360.00000     0.32112
     9.40000    21.22534   360.00000     0.31325    16.42474   360.00000     0.32155
     9.50000    21.76612   360.00000     0.31356    16.96414   360.00000     0.32196
     9.60000    22.31471   360.00000     0.31387    17.51439   360.00000     0.32236
     9.70000    22.87104   360.00000     0.31417    18.07539   360.00000     0.32275
     9.80000    23.48744   360.00000     0.31449    18.70052   360.00000     0.32317
     9.90000    24.11305   360.00000     0.31481    19.33850   360.00000     0.32356
    10.00000    24.74771   360.00000     0.31511    19.98921   360.00000     0.32394
    10.10000    25.44636   360.00000     0.31543    20.70957   360.00000     0.32434
    10.20000    26.15551   360.00000     0.31575    21.44475   360.00000     0.32471
    10.30000    26.87497   360.00000     0.31605    22.19454   360.00000     0.32506
    10.40000    27.66231   360.00000     0.31636    23.01955   360.00000     0.32543
    10.50000    28.46132   360.00000     0.31666    23.86114   360.00000     0.32576
    10.60000    29.33137   360.00000     0.31697    24.78249   360.00000     0.32609
    10.70000    30.21434   360.00000     0.31726    25.72226   360.00000     0.32640
    10.80000    31.17147   360.00000     0.31756    26.74617   360.00000     0.32670
    10.90000    32.20523   360.00000     0.31787    27.85775   360.00000     0.32698
    11.00000    33.25448   360.00000     0.31815    28.99131   360.00000     0.32723
    11.10000    34.44792   360.00000     0.31844    30.28698   360.00000     0.32747
    11.20000    35.72533   360.00000     0.31873    31.68027   360.00000     0.32767
    11.30000    37.08900   360.00000     0.31901    33.17410   360.00000     0.32785
    11.40000    38.54112   360.00000     0.31927    34.77102   360.00000     0.32798
    11.50000    40.22184   360.00000     0.31954    36.62618   360.00000     0.32807
    11.60000    42.06958   360.00000     0.31980    38.67188   360.00000     0.32810
    11.70000    44.16084   360.00000     0.32004    40.99243   360.00000     0.32808
    11.80000    46.57676   360.00000     0.32026    43.67634   360.00000     0.32797
    11.90000    49.40329   360.00000     0.32047    46.81507   360.00000     0.32778
    12.00000    52.80696   360.00000     0.32066    50.58456   360.00000     0.32747
    12.10000    57.04256   360.00000     0.32081    55.24728   360.00000     0.32702
    12.20000    62.46178   360.00000     0.32093    61.14934   360.00000     0.32644
    12.30000    69.76408   360.00000     0.32100    68.96943   360.00000     0.32576
    12.40000    82.17374   360.00000     0.32105    81.94091   360.00000     0.32505
    12.50000    90.00000   360.00000     0.32108    90.00000   360.00000     0.32494
    12.60000    90.00000   360.00000     0.32110    90.00000   360.00000     0.32496
    12.70000    90.00000   360.00000     0.32112    90.00000   360.00000     0.32499
    12.80000    90.00000   360.00000     0.32115    90.00000   360.00000     0.32501
    12.90000    90.00000   360.00000     0.32117    90.00000   360.00000     0.32503
    13.00000    90.00000   360.00000     0.32119    90.00000   360.00000     0.32505
    13.10000    90.00000   360.00000     0.32121    90.00000   360.00000     0.32508
    13.20000    90.00000   360.00000     0.32124    90.00000   360.00000     0.32510
    13.30000    90.00000   360.00000     0.32126    90.00000   360.00000     0.32512
    13.40000    90.00000   360.00000     0.32128    90.00000   360.00000     0.32514
    13.50000    90.00000   360.00000     0.32130    90.00000   360.00000     0.32517
    13.60000    90.00000   360.00000     0.32133    90.00000   360.00000     0.32519
    13.70000    90.00000   360.00000     0.32135    90.00000   360.00000     0.32521
    13.80000    90.00000   360.00000     0.32137    90.00000   360.00000     0.32523
    13.90000    90.00000   360.00000     0.32139    90.00000   360.00000     0.32526
    14.00000    90.00000   360.00000     0.32142    90.00000   360.00000     0.32528
    14.10000    90.00000   360.00000     0.32144    90.00000   360.00000     0.32530
    14.20000    90.00000   360.00000     0.32146    90.00000   360.00000     0.32532
    14.30000    90.00000   360.00000     0.32148    90.00000   360.00000     0.32535
    14.40000    90.00000   360.00000     0.32151    90.00000   360.00000     0.32537
    14.50000    90.00000   360.00000     0.32153    90.00000   360.00000     0.32539
    14.60000    90.00000   360.00000     0.32155    90.00000   360.00000     0.32541
    14.70000    90.00000   360.00000     0.32157    90.00000   360.00000     0.32544
    14.80000    90.00000   360.00000     0.32160    90.00000   360.00000     0.32546
    14.90000    90.00000   360.00000     0.32162    90.00000   360.00000     0.32548
    15.00000    90.00000   360.00000     0.32164    90.00000   360.00000     0.32551
    15.10000    90.00000   360.00000     0.32166    90.00000   360.00000     0.32553
    15.20000    90.00000   360.00000     0.32168    90.00000   360.00000     0.32555
    15.30000    90.00000   360.00000     0.32171    90.00000   360.00000     0.32557
    15.40000    90.00000   360.00000     0.32173    90.00000   360.00000     0.32560
    15.50000    90.00000   360.00000     0.32175    90.00000   360.00000     0.32562
    15.60000    90.00000   360.00000     0.32177    90.00000   360.00000     0.32564
    15.70000    90.00000   360.00000     0.32180    90.00000   360.00000     0.32566
    15.80000    90.00000   360.00000     0.32182    90.00000   360.00000     0.32569
    15.90000    90.00000   360.00000     0.32184    90.00000   360.00000     0.32571
    16.00000    90.00000   360.00000     0.32186    90.00000   360.00000     0.32573
    16.10000    90.00000   360.00000     0.32189    90.00000   360.00000     0.32575
    16.20000    90.00000   360.00000     0.32191    90.00000   360.00000     0.32578
    16.30000    90.00000   360.00000     0.32193    90.00000   360.00000     0.32580
    16.40000    90.00000   360.00000     0.32195    90.00000   360.00000     0.32582
    16.50000    90.00000   360.00000     0.32198    90.00000   360.00000     0.32584
    16.60000    90.00000   360.00000     0.32200    90.00000   360.00000     0.32587
    16.70000    90.00000   360.00000     0.32202    90.00000   360.00000     0.32589
    16.80000    90.00000   360.00000     0.32204    90.00000   360.00000     0.32591
    16.90000    90.00000   360.00000     0.32207    90.00000   360.00000     0.32594
    17.00000    90.00000   360.00000     0.32209    90.00000   360.00000     0.32596
    17.10000    90.00000   360.00000     0.32211    90.00000   360.00000     0.32598
    17.20000    90.00000   360.00000     0.32213    90.00000   360.00000     0.32600
    17.30000    90.00000   360.00000     0.32216    90.00000   360.00000     0.32603
    17.40000    90.00000   360.00000     0.32218    90.00000   360.00000     0.32605
    17.50000    90.00000   360.00000     0.32220    90.00000   360.00000     0.32607
    17.60000    90.00000   360.00000     0.32222    90.00000   360.00000     0.32609
    17.70000    90.00000   360.00000     0.32225    90.00000   360.00000     0.32612
    17.80000    90.00000   360.00000     0.32227    90.00000   360.00000     0.32614
    17.90000    90.00000   360.00000     0.32229    90.00000   360.00000     0.32616
    18.00000    90.00000   360.00000     0.32231    90.00000   360.00000     0.32619
    18.10000    90.00000   360.00000     0.32234    90.00000   360.00000     0.32621
    18.20000    90.00000   360.00000     0.32236    90.00000   360.00000     0.32623
    18.30000    90.00000   360.00000     0.32238    90.00000   360.00000     0.32625
    18.40000    90.00000   360.00000     0.32240    90.00000   360.00000     0.32628
    18.50000    90.00000   360.00000     0.32243    90.00000   360.00000     0.32630
    18.60000    90.00000   360.00000     0.32245    90.00000   360.00000     0.32632
    18.70000    90.00000   360.00000     0.32247    90.00000   360.00000     0.32634
    18.80000    90.00000   360.00000     0.32250    90.00000   360.00000     0.32637
    18.90000    90.00000   360.00000     0.32252    90.00000   360.00000     0.32639
    19.00000    90.00000   360.00000     0.32254    90.00000   360.00000     0.32641
    19.10000    90.00000   360.00000     0.32256    90.00000   360.00000     0.32643
    19.20000    90.00000   360.00000     0.32259    90.00000   360.00000     0.32646
    19.30000    90.00000   360.00000     0.32261    90.00000   360.00000     0.32648
    19.40000    90.00000   360.00000     0.32263    90.00000   360.00000     0.32650
    19.50000    90.00000   360.00000     0.32265    90.00000   360.00000     0.32653
    19.60000    90.00000   360.00000     0.32268    90.00000   360.00000     0.32655
    19.70000    90.00000   360.00000     0.32270    90.00000   360.00000     0.32657
    19.80000    90.00000   360.00000     0.32272    90.00000   360.00000     0.32659
    19.90000    90.00000   360.00000     0.32274    90.00000   360.00000     0.32662
    20.00000    90.00000   360.00000     0.32277    90.00000   360.00000     0.32664
    20.10000    90.00000   360.00000     0.32279    90.00000   360.00000     0.32666
    20.20000    90.00000   360.00000     0.32281    90.00000   360.00000     0.32669
    20.30000    90.00000   360.00000     0.32283    90.00000   360.00000     0.32671
    20.40000    90.00000   360.00000     0.32286    90.00000   360.00000     0.32673
    20.50000    90.00000   360.00000     0.32288    90.00000   360.00000     0.32675
    20.60000    90.00000   360.00000     0.32290    90.00000   360.00000     0.32678
    20.70000    90.00000   360.00000     0.32292    90.00000   360.00000     0.32680
    20.80000    90.00000   360.00000     0.32295    90.00000   360.00000     0.32682
    20.90000    90.00000   360.00000     0.32297    90.00000   360.00000     0.32684
    21.00000    90.00000   360.00000     0.32299    90.00000   360.00000     0.32687
    21.10000    90.00000   360.00000     0.32301    90.00000   360.00000     0.32689
    21.20000    90.00000   360.00000     0.32304    90.00000   360.00000     0.32691
    21.30000    90.00000   360.00000     0.32306    90.00000   360.00000     0.32694
    21.40000    90.00000   360.00000     0.32308    90.00000   360.00000     0.32696
    21.50000    90.00000   360.00000     0.32310    90.00000   360.00000     0.32698
    21.60000    90.00000   360.00000     0.32313    90.00000   360.00000     0.32700
    21.70000    90.00000   360.00000     0.32315    90.00000   360.00000     0.32703
    21.80000    90.00000   360.00000     0.32317    90.00000   360.00000     0.32705
    21.90000    90.00000   360.00000     0.32320    90.00000   360.00000     0.32707
    22.00000    90.00000   360.00000     0.32322    90.00000   360.00000     0.32710
    22.10000    90.00000   360.00000     0.32324    90.00000   360.00000     0.32712
    22.20000    90.00000   360.00000     0.32326    90.00000   360.00000     0.32714
    22.30000    90.00000   360.00000     0.32329    90.00000   360.00000     0.32716
    22.40000    90.00000   360.00000     0.32331    90.00000   360.00000     0.32719
    22.50000    90.00000   360.00000     0.32333    90.00000   360.00000     0.32721
    22.60000    90.00000   360.00000     0.32335    90.00000   360.00000     0.32723
    22.70000    90.00000   360.00000     0.32338    90.00000   360.00000     0.32726
    22.80000    90.00000   360.00000     0.32340    90.00000   360.00000     0.32728
    22.90000    90.00000   360.00000     0.32342    90.00000   360.00000     0.32730
    23.00000    90.00000   360.00000     0.32344    90.00000   360.00000     0.32732
    23.10000    90.00000   360.00000     0.32347    90.00000   360.00000     0.32735
    23.20000    90.00000   360.00000     0.32349    90.00000   360.00000     0.32737
    23.30000    90.00000   360.00000     0.32351    90.00000   360.00000     0.32739
