 # applied field (T), magnetization (2 f.u.), magnetization (T)
  0.000000000000000E+000  3.293772573472855E-015  1.133368732202177E-016
  0.100000000000000       0.373550908211582       1.285367795768433E-002
  0.200000000000000       0.693804077523671       2.387341051026529E-002
  0.300000000000000        1.06730992981104       3.672553811878120E-002
  0.400000000000000        1.44076726609515       4.957599631874260E-002
  0.500000000000000        1.81415910860376       6.242420091449662E-002
  0.600000000000000        2.13422376643585       7.343744689241787E-002
  0.700000000000000        2.50744892123549       8.627991585727507E-002
  0.800000000000000        2.88056008128974       9.911846232666006E-002
  0.900000000000000        3.25354027707994       0.111952502388921     
   1.00000000000000        3.57319990265001       0.122951811433096     
   1.10000000000000        3.94589183778405       0.135775932607300     
   1.20000000000000        4.31840433952857       0.148593879578863     
   1.30000000000000        4.69072045236164       0.161405068917754     
   1.40000000000000        5.06282322528228       0.174208917349503     
   1.50000000000000        5.38166504494584       0.185180086149543     
   1.60000000000000        5.75332661355365       0.197968752987495     
   1.70000000000000        6.12472643554230       0.210748413270584     
   1.80000000000000        6.49584758048507       0.223518484432290     
   1.90000000000000        6.86667312405952       0.236278384116135     
   2.00000000000000        7.23718614833705       0.249027530185655     
   2.10000000000000        7.60736974205826       0.261765340733864     
   2.20000000000000        7.97720700089322       0.274491234092219     
   2.30000000000000        8.34668102768635       0.287204628839041     
   2.40000000000000        8.71577493268480       0.299904943807375     
   2.50000000000000        9.08447183374989       0.312591598092264     
   2.60000000000000        9.45275485655122       0.325264011057433     
   2.70000000000000        9.82060713474245       0.337921602341329     
   2.80000000000000        10.1880118101187       0.350563791862547     
   2.90000000000000        10.5549520327545       0.363189999824570     
   3.00000000000000        10.9736437995308       0.377596949494272     
   3.10000000000000        11.3395321653281       0.390186963650409     
   3.20000000000000        11.7049031804353       0.402759176058473     
   3.30000000000000        12.1217371538607       0.417102200097374     
   3.40000000000000        12.4859430627911       0.429634321853120     
   3.50000000000000        12.8495788086144       0.442146824615040     
   3.60000000000000        13.2643653481524       0.456419397598273     
   3.70000000000000        13.6267229232025       0.468887919218314     
   3.80000000000000        14.0400049614823       0.483108723154186     
   3.90000000000000        14.4524487184663       0.497300682299221     
   4.00000000000000        14.8126970108934       0.509696624683173     
   4.10000000000000        15.2235015143590       0.523832178030890     
   4.20000000000000        15.6333959360138       0.537936415972182     
   4.30000000000000        16.0423553308160       0.552008480162106     
   4.40000000000000        16.4503547673015       0.566047512722913     
   4.50000000000000        16.8573693271917       0.580052656230564     
   4.60000000000000        17.3139861198334       0.595764584842349     
   4.70000000000000        17.7188253140236       0.609694875232170     
   4.80000000000000        18.1226018478010       0.623588600071156     
   4.90000000000000        18.5754834992516       0.639172004562286     
   5.00000000000000        19.0269537915294       0.654706844973150     
   5.10000000000000        19.4271053859280       0.668475837674250     
   5.20000000000000        19.8758131246805       0.683915620162420     
   5.30000000000000        20.3230074064634       0.699303325442202     
   5.40000000000000        20.8180145257779       0.716336243736772     
   5.50000000000000        21.2618980154491       0.731610026510536     
   5.60000000000000        21.7531395955689       0.748513374706140     
   5.70000000000000        22.2423293002229       0.765346119013844     
   5.80000000000000        22.7294187847047       0.782106595919332     
   5.90000000000000        23.2143597182326       0.798793142387414     
   6.00000000000000        23.7452053235296       0.817059242952948     
   6.10000000000000        24.2733290439094       0.835231684979860     
   6.20000000000000        24.7986666352688       0.853308257864473     
   6.30000000000000        25.3684644391835       0.872914681812362     
   6.40000000000000        25.9347874109820       0.892401538729368     
   6.50000000000000        26.4975522571822       0.911765962533326     
   6.60000000000000        27.1494231901764       0.934196476978595     
   6.70000000000000        27.7962072899944       0.956451956337521     
   6.80000000000000        28.4377725965594       0.978527859937625     
   6.90000000000000        29.1643644268580        1.00352947869437     
   7.00000000000000        29.9284644289418        1.02982173267730     
   7.10000000000000        53.7657508200244        1.85004943369662     
   7.20000000000000        53.7657967283656        1.85005101337698     
   7.30000000000000        53.7658426411170        1.85005259320910     
   7.40000000000000        53.7658885582801        1.85005417319301     
   7.50000000000000        53.7659344798565        1.85005575332879     
   7.60000000000000        53.7659804058478        1.85005733361648     
   7.70000000000000        53.7660263362556        1.85005891405614     
   7.80000000000000        53.7660722710813        1.85006049464782     
   7.90000000000000        53.7661182103267        1.85006207539157     
   8.00000000000000        53.7661641539932        1.85006365628746     
   8.10000000000000        53.7662101020823        1.85006523733552     
   8.20000000000000        53.7662560545958        1.85006681853583     
   8.30000000000000        53.7663020115351        1.85006839988842     
   8.40000000000000        53.7663479729018        1.85006998139336     
   8.50000000000000        53.7663939386975        1.85007156305070     
   8.60000000000000        53.7664399089237        1.85007314486049     
   8.70000000000000        53.7664858835820        1.85007472682278     
   8.80000000000000        53.7665318626740        1.85007630893764     
   8.90000000000000        53.7665778462012        1.85007789120510     
   9.00000000000000        53.7666238341651        1.85007947362524     
   9.10000000000000        53.7666698265675        1.85008105619810     
   9.20000000000000        53.7667158234098        1.85008263892373     
   9.30000000000000        53.7667618246935        1.85008422180219     
   9.40000000000000        53.7668078304203        1.85008580483354     
   9.50000000000000        53.7668538405917        1.85008738801782     
   9.60000000000000        53.7668998552093        1.85008897135509     
   9.70000000000000        53.7669458742746        1.85009055484540     
   9.80000000000000        53.7669918977892        1.85009213848882     
   9.90000000000000        53.7670379257546        1.85009372228538     
   10.0000000000000        53.7670839581725        1.85009530623515     
   10.1000000000000        53.7671299950443        1.85009689033818     
   10.2000000000000        53.7671760363717        1.85009847459452     
   10.3000000000000        53.7672220821562        1.85010005900422     
   10.4000000000000        53.7672681323993        1.85010164356735     
   10.5000000000000        53.7673141871026        1.85010322828395     
   10.6000000000000        53.7673602462677        1.85010481315408     
   10.7000000000000        53.7674063098961        1.85010639817778     
   10.8000000000000        53.7674523779894        1.85010798335512     
   10.9000000000000        53.7674984505492        1.85010956868615     
   11.0000000000000        53.7675445275769        1.85011115417092     
   11.1000000000000        53.7675906090743        1.85011273980949     
   11.2000000000000        53.7676366950427        1.85011432560191     
   11.3000000000000        53.7676827854838        1.85011591154822     
   11.4000000000000        53.7677288803992        1.85011749764850     
   11.5000000000000        53.7677749797903        1.85011908390278     
   11.6000000000000        53.7678210836588        1.85012067031112     
   11.7000000000000        53.7678671920062        1.85012225687358     
   11.8000000000000        53.7679133048340        1.85012384359022     
   11.9000000000000        53.7679594221439        1.85012543046107     
   12.0000000000000        53.7680055439373        1.85012701748620     
   12.1000000000000        53.7680516702159        1.85012860466567     
   12.2000000000000        53.7680978009811        1.85013019199951     
   12.3000000000000        53.7681439362345        1.85013177948780     
   12.4000000000000        53.7681900759777        1.85013336713057     
   12.5000000000000        53.7682362202123        1.85013495492789     
   12.6000000000000        53.7682823689398        1.85013654287981     
   12.7000000000000        53.7683285221617        1.85013813098638     
   12.8000000000000        53.7683746798796        1.85013971924765     
   12.9000000000000        53.7684208420950        1.85014130766368     
   13.0000000000000        53.7684670088095        1.85014289623452     
   13.1000000000000        53.7685131800247        1.85014448496023     
   13.2000000000000        53.7685593557421        1.85014607384086     
   13.3000000000000        53.7686055359633        1.85014766287645     
   13.4000000000000        53.7686517206897        1.85014925206708     
   13.5000000000000        53.7686979099230        1.85015084141278     
   13.6000000000000        53.7687441036647        1.85015243091361     
   13.7000000000000        53.7687903019164        1.85015402056963     
   13.8000000000000        53.7688365046796        1.85015561038088     
   13.9000000000000        53.7688827119558        1.85015720034743     
   14.0000000000000        53.7689289237466        1.85015879046932     
   14.1000000000000        53.7689751400536        1.85016038074662     
   14.2000000000000        53.7690213608783        1.85016197117936     
   14.3000000000000        53.7690675862223        1.85016356176761     
   14.4000000000000        53.7691138160870        1.85016515251141     
   14.5000000000000        53.7691600504741        1.85016674341083     
   14.6000000000000        53.7692062893851        1.85016833446591     
   14.7000000000000        53.7692525328215        1.85016992567671     
   14.8000000000000        53.7692987807849        1.85017151704328     
   14.9000000000000        53.7693450332769        1.85017310856568     
   15.0000000000000        53.7693912902989        1.85017470024395     
   15.1000000000000        53.7694375518525        1.85017629207815     
   15.2000000000000        53.7694838179394        1.85017788406834     
   15.3000000000000        53.7695300885609        1.85017947621457     
   15.4000000000000        53.7695763637188        1.85018106851688     
   15.5000000000000        53.7696226434144        1.85018266097534     
   15.6000000000000        53.7696689276494        1.85018425359000     
   15.7000000000000        53.7697152164253        1.85018584636090     
   15.8000000000000        53.7697615097436        1.85018743928811     
   15.9000000000000        53.7698078076059        1.85018903237168     
   16.0000000000000        53.7698541100138        1.85019062561165     
   16.1000000000000        53.7699004169687        1.85019221900809     
   16.2000000000000        53.7699467284723        1.85019381256104     
   16.3000000000000        53.7699930445260        1.85019540627056     
   16.4000000000000        53.7700393651314        1.85019700013670     
   16.5000000000000        53.7700856902901        1.85019859415952     
   16.6000000000000        53.7701320200036        1.85020018833906     
   16.7000000000000        53.7701783542733        1.85020178267539     
   16.8000000000000        53.7702246931010        1.85020337716855     
   16.9000000000000        53.7702710364881        1.85020497181859     
   17.0000000000000        53.7703173844362        1.85020656662558     
   17.1000000000000        53.7703637369467        1.85020816158956     
   17.2000000000000        53.7704100940213        1.85020975671058     
   17.3000000000000        53.7704564556614        1.85021135198871     
   17.4000000000000        53.7705028218687        1.85021294742398     
   17.5000000000000        53.7705491926446        1.85021454301647     
   17.6000000000000        53.7705955679908        1.85021613876621     
   17.7000000000000        53.7706419479087        1.85021773467326     
   17.8000000000000        53.7706883323998        1.85021933073767     
   17.9000000000000        53.7707347214658        1.85022092695950     
   18.0000000000000        53.7707811151081        1.85022252333880     
   18.1000000000000        53.7708275133283        1.85022411987563     
   18.2000000000000        53.7708739161280        1.85022571657003     
   18.3000000000000        53.7709203235086        1.85022731342205     
   18.4000000000000        53.7709667354717        1.85022891043176     
   18.5000000000000        53.7710131520189        1.85023050759921     
   18.6000000000000        53.7710595731516        1.85023210492444     
   18.7000000000000        53.7711059988715        1.85023370240751     
   18.8000000000000        53.7711524291800        1.85023530004847     
   18.9000000000000        53.7711988640788        1.85023689784738     
   19.0000000000000        53.7712453035692        1.85023849580429     
   19.1000000000000        53.7712917476529        1.85024009391925     
   19.2000000000000        53.7713381963314        1.85024169219232     
   19.3000000000000        53.7713846496063        1.85024329062354     
   19.4000000000000        53.7714311074790        1.85024488921297     
   19.5000000000000        53.7714775699511        1.85024648796067     
   19.6000000000000        53.7715240370241        1.85024808686668     
   19.7000000000000        53.7715705086997        1.85024968593106     
   19.8000000000000        53.7716169849792        1.85025128515386     
   19.9000000000000        53.7716634658642        1.85025288453514     
   20.0000000000000        53.7717099513564        1.85025448407494     
   20.1000000000000        53.7717564414572        1.85025608377332     
   20.2000000000000        53.7718029361681        1.85025768363033     
   20.3000000000000        53.7718494354906        1.85025928364603     
   20.4000000000000        53.7718959394264        1.85026088382047     
   20.5000000000000        53.7719424479769        1.85026248415370     
   20.6000000000000        53.7719889611437        1.85026408464577     
   20.7000000000000        53.7720354789283        1.85026568529674     
   20.8000000000000        53.7720820013322        1.85026728610665     
   20.9000000000000        53.7721285283570        1.85026888707557     
   21.0000000000000        53.7721750600042        1.85027048820354     
   21.1000000000000        53.7722215962753        1.85027208949062     
   21.2000000000000        53.7722681371719        1.85027369093685     
   21.3000000000000        53.7723146826954        1.85027529254230     
   21.4000000000000        53.7723612328475        1.85027689430702     
   21.5000000000000        53.7724077876296        1.85027849623105     
   21.6000000000000        53.7724543470433        1.85028009831445     
   21.7000000000000        53.7725009110901        1.85028170055727     
   21.8000000000000        53.7725474797716        1.85028330295957     
   21.9000000000000        53.7725940530892        1.85028490552140     
   22.0000000000000        53.7726406310445        1.85028650824281     
   22.1000000000000        53.7726872136391        1.85028811112385     
   22.2000000000000        53.7727338008743        1.85028971416458     
   22.3000000000000        53.7727803927519        1.85029131736504     
   22.4000000000000        53.7728269892733        1.85029292072530     
   22.5000000000000        53.7728735904400        1.85029452424540     
   22.6000000000000        53.7729201962536        1.85029612792539     
   22.7000000000000        53.7729668067155        1.85029773176534     
   22.8000000000000        53.7730134218274        1.85029933576528     
   22.9000000000000        53.7730600415907        1.85030093992528     
   23.0000000000000        53.7731066660070        1.85030254424538     
   23.1000000000000        53.7731532950778        1.85030414872564     
   23.2000000000000        53.7731999288046        1.85030575336612     
   23.3000000000000        53.7732465671890        1.85030735816686     
   23.4000000000000        53.7732932102324        1.85030896312791     
   23.5000000000000        53.7733398579364        1.85031056824933     
   23.6000000000000        53.7733865103026        1.85031217353117     
   23.7000000000000        53.7734331673323        1.85031377897349     
   23.8000000000000        53.7734798290273        1.85031538457633     
   23.9000000000000        53.7735264953890        1.85031699033975     
   24.0000000000000        53.7735731664188        1.85031859626381     
   24.1000000000000        53.7736198421185        1.85032020234854     
   24.2000000000000        53.7736665224894        1.85032180859401     
   24.3000000000000        53.7737132075331        1.85032341500027     
   24.4000000000000        53.7737598972511        1.85032502156737     
   24.5000000000000        53.7738065916449        1.85032662829536     
   24.6000000000000        53.7738532907161        1.85032823518430     
   24.7000000000000        53.7738999944662        1.85032984223424     
   24.8000000000000        53.7739467028967        1.85033144944522     
   24.9000000000000        53.7739934160091        1.85033305681731     
   25.0000000000000        53.7740401338049        1.85033466435055     
   25.1000000000000        53.7740868562857        1.85033627204500     
   25.2000000000000        53.7741335834531        1.85033787990071     
   25.3000000000000        53.7741803153084        1.85033948791773     
   25.4000000000000        53.7742270518533        1.85034109609612     
   25.5000000000000        53.7742737930892        1.85034270443592     
   25.6000000000000        53.7743205390177        1.85034431293719     
   25.7000000000000        53.7743672896403        1.85034592159998     
   25.8000000000000        53.7744140449585        1.85034753042435     
   25.9000000000000        53.7744608049738        1.85034913941034     
   26.0000000000000        53.7745075696878        1.85035074855801     
   26.1000000000000        53.7745543391019        1.85035235786741     
   26.2000000000000        53.7746011132178        1.85035396733859     
   26.3000000000000        53.7746478920369        1.85035557697161     
   26.4000000000000        53.7746946755607        1.85035718676652     
   26.5000000000000        53.7747414637907        1.85035879672336     
   26.6000000000000        53.7747882567285        1.85036040684219     
   26.7000000000000        53.7748350543756        1.85036201712307     
   26.8000000000000        53.7748818567335        1.85036362756605     
   26.9000000000000        53.7749286638037        1.85036523817117     
   27.0000000000000        53.7749754755878        1.85036684893850     
   27.1000000000000        53.7750222920872        1.85036845986807     
   27.2000000000000        53.7750691133035        1.85037007095996     
