 # applied field (T), theta (degree), phi (degree), abs for RE 1-2
     0.00000     0.00000     0.00000     0.28682     0.00000     0.00000     0.28682
     0.10000     0.02844   180.00000     0.28682     0.02844   180.00000     0.28682
     0.20000     0.05685   180.00000     0.28683     0.05685   180.00000     0.28683
     0.30000     0.10562   180.00000     0.28684     0.10562   180.00000     0.28684
     0.40000     0.13387   180.00000     0.28686     0.13387   180.00000     0.28686
     0.50000     0.16202   180.00000     0.28689     0.16202   180.00000     0.28689
     0.60000     0.19003   180.00000     0.28692     0.19003   180.00000     0.28692
     0.70000     0.21787   180.00000     0.28695     0.21787   180.00000     0.28695
     0.80000     0.26574   180.00000     0.28700     0.26574   180.00000     0.28700
     0.90000     0.29312   180.00000     0.28705     0.29312   180.00000     0.28705
     1.00000     0.32026   180.00000     0.28710     0.32026   180.00000     0.28710
     1.10000     0.34713   180.00000     0.28716     0.34713   180.00000     0.28716
     1.20000     0.37370   180.00000     0.28722     0.37370   180.00000     0.28722
     1.30000     0.39995   180.00000     0.28729     0.39995   180.00000     0.28729
     1.40000     0.44556   180.00000     0.28738     0.44556   180.00000     0.28738
     1.50000     0.47099   180.00000     0.28746     0.47099   180.00000     0.28746
     1.60000     0.49600   180.00000     0.28754     0.49600   180.00000     0.28754
     1.70000     0.52059   180.00000     0.28763     0.52059   180.00000     0.28763
     1.80000     0.54472   180.00000     0.28772     0.54472   180.00000     0.28772
     1.90000     0.58746   180.00000     0.28785     0.58746   180.00000     0.28785
     2.00000     0.61047   180.00000     0.28795     0.61047   180.00000     0.28795
     2.10000     0.63294   180.00000     0.28806     0.63294   180.00000     0.28806
     2.20000     0.65484   180.00000     0.28817     0.65484   180.00000     0.28817
     2.30000     0.67616   180.00000     0.28829     0.67616   180.00000     0.28829
     2.40000     0.71516   180.00000     0.28845     0.71516   180.00000     0.28845
     2.50000     0.73506   180.00000     0.28858     0.73506   180.00000     0.28858
     2.60000     0.75429   180.00000     0.28872     0.75429   180.00000     0.28872
     2.70000     0.77282   180.00000     0.28885     0.77282   180.00000     0.28885
     2.80000     0.79065   180.00000     0.28900     0.79065   180.00000     0.28900
     2.90000     0.82505   180.00000     0.28919     0.82505   180.00000     0.28919
     3.00000     0.84116   180.00000     0.28934     0.84116   180.00000     0.28934
     3.10000     0.85648   180.00000     0.28950     0.85648   180.00000     0.28950
     3.20000     0.87098   180.00000     0.28966     0.87098   180.00000     0.28966
     3.30000     0.90104   180.00000     0.28988     0.90104   180.00000     0.28988
     3.40000     0.91361   180.00000     0.29005     0.91361   180.00000     0.29005
     3.50000     0.92528   180.00000     0.29023     0.92528   180.00000     0.29023
     3.60000     0.93603   180.00000     0.29041     0.93603   180.00000     0.29041
     3.70000     0.94585   180.00000     0.29060     0.94585   180.00000     0.29060
     3.80000     0.96982   180.00000     0.29084     0.96982   180.00000     0.29084
     3.90000     0.97742   180.00000     0.29104     0.97742   180.00000     0.29104
     4.00000     0.98401   180.00000     0.29124     0.98401   180.00000     0.29124
     4.10000     0.98957   180.00000     0.29144     0.98957   180.00000     0.29144
     4.20000     1.00802   180.00000     0.29171     1.00802   180.00000     0.29171
     4.30000     1.01115   180.00000     0.29193     1.01115   180.00000     0.29193
     4.40000     1.01317   180.00000     0.29214     1.01317   180.00000     0.29214
     4.50000     1.01406   180.00000     0.29236     1.01406   180.00000     0.29236
     4.60000     1.02649   180.00000     0.29265     1.02649   180.00000     0.29265
     4.70000     1.02475   180.00000     0.29288     1.02475   180.00000     0.29288
     4.80000     1.02181   180.00000     0.29312     1.02181   180.00000     0.29312
     4.90000     1.02930   180.00000     0.29342     1.02930   180.00000     0.29342
     5.00000     1.02357   180.00000     0.29366     1.02357   180.00000     0.29366
     5.10000     1.01658   180.00000     0.29391     1.01658   180.00000     0.29391
     5.20000     1.00830   180.00000     0.29416     1.00830   180.00000     0.29416
     5.30000     1.00891   180.00000     0.29448     1.00891   180.00000     0.29448
     5.40000     0.99765   180.00000     0.29474     0.99765   180.00000     0.29474
     5.50000     0.98503   180.00000     0.29500     0.98503   180.00000     0.29500
     5.60000     0.98007   180.00000     0.29534     0.98007   180.00000     0.29534
     5.70000     0.96432   180.00000     0.29560     0.96432   180.00000     0.29560
     5.80000     0.94715   180.00000     0.29587     0.94715   180.00000     0.29587
     5.90000     0.92855   180.00000     0.29615     0.92855   180.00000     0.29615
     6.00000     0.91592   180.00000     0.29650     0.91592   180.00000     0.29650
     6.10000     0.89400   180.00000     0.29678     0.89400   180.00000     0.29678
     6.20000     0.87058   180.00000     0.29707     0.87058   180.00000     0.29707
     6.30000     0.85179   180.00000     0.29744     0.85179   180.00000     0.29744
     6.40000     0.82491   180.00000     0.29772     0.82491   180.00000     0.29772
     6.50000     0.80171   180.00000     0.29810     0.80171   180.00000     0.29810
     6.60000     0.77128   180.00000     0.29840     0.77128   180.00000     0.29840
     6.70000     0.73926   180.00000     0.29869     0.73926   180.00000     0.29869
     6.80000     0.70948   180.00000     0.29908     0.70948   180.00000     0.29908
     6.90000     0.67378   180.00000     0.29938     0.67378   180.00000     0.29938
     7.00000     0.63642   180.00000     0.29969     0.63642   180.00000     0.29969
     7.10000     0.59983   180.00000     0.30008     0.59983   180.00000     0.30008
     7.20000     0.55867   180.00000     0.30039     0.55867   180.00000     0.30039
     7.30000     0.51722   180.00000     0.30080     0.51722   180.00000     0.30080
     7.40000     0.47217   180.00000     0.30111     0.47217   180.00000     0.30111
     7.50000     0.42536   180.00000     0.30143     0.42536   180.00000     0.30143
     7.60000     0.37672   180.00000     0.30184     0.37672   180.00000     0.30184
     7.70000     0.32591   180.00000     0.30216     0.32591   180.00000     0.30216
     7.80000     0.27216   180.00000     0.30257     0.27216   180.00000     0.30257
     7.90000     0.21725   180.00000     0.30290     0.21725   180.00000     0.30290
     8.00000     0.15828   180.00000     0.30332     0.15828   180.00000     0.30332
     8.10000     0.09919   180.00000     0.30364     0.09919   180.00000     0.30364
     8.20000     0.03491   180.00000     0.30407     0.03491   180.00000     0.30407
     8.30000     0.02844   360.00000     0.30440     0.02844   360.00000     0.30440
     8.40000     0.09813   360.00000     0.30483     0.09813   360.00000     0.30483
     8.50000     0.16581   360.00000     0.30516     0.16581   360.00000     0.30516
     8.60000     0.24101   360.00000     0.30559     0.24101   360.00000     0.30559
     8.70000     0.31310   360.00000     0.30592     0.31310   360.00000     0.30592
     8.80000     0.39390   360.00000     0.30636     0.39390   360.00000     0.30636
     8.90000     0.47047   360.00000     0.30669     0.47047   360.00000     0.30669
     9.00000     0.55698   360.00000     0.30713     0.55698   360.00000     0.30713
     9.10000     0.64669   360.00000     0.30756     0.64669   360.00000     0.30756
     9.20000     0.73039   360.00000     0.30790     0.73039   360.00000     0.30790
     9.30000     0.82595   360.00000     0.30834     0.82595   360.00000     0.30834
     9.40000     0.92479   360.00000     0.30878     0.92479   360.00000     0.30878
     9.50000     1.01579   360.00000     0.30912     1.01579   360.00000     0.30912
     9.60000     1.12061   360.00000     0.30956     1.12061   360.00000     0.30956
     9.70000     1.22880   360.00000     0.31000     1.22880   360.00000     0.31000
     9.80000     1.32726   360.00000     0.31033     1.32726   360.00000     0.31033
     9.90000     1.44155   360.00000     0.31077     1.44155   360.00000     0.31077
    10.00000     1.55929   360.00000     0.31121     1.55929   360.00000     0.31121
    10.10000     1.68048   360.00000     0.31165     1.68048   360.00000     0.31165
    10.20000     1.78935   360.00000     0.31199     1.78935   360.00000     0.31199
    10.30000     1.91683   360.00000     0.31242     1.91683   360.00000     0.31242
    10.40000     2.04784   360.00000     0.31286     2.04784   360.00000     0.31286
    10.50000     2.18241   360.00000     0.31330     2.18241   360.00000     0.31330
    10.60000     2.32057   360.00000     0.31373     2.32057   360.00000     0.31373
    10.70000     2.46233   360.00000     0.31416     2.46233   360.00000     0.31416
    10.80000     2.60772   360.00000     0.31459     2.60772   360.00000     0.31459
    10.90000     2.75677   360.00000     0.31502     2.75677   360.00000     0.31502
    11.00000     2.90950   360.00000     0.31545     2.90950   360.00000     0.31545
    11.10000     3.06592   360.00000     0.31587     3.06592   360.00000     0.31587
    11.20000     3.22607   360.00000     0.31630     3.22607   360.00000     0.31630
    11.30000     3.38997   360.00000     0.31672     3.38997   360.00000     0.31672
    11.40000     3.55764   360.00000     0.31714     3.55764   360.00000     0.31714
    11.50000     3.72909   360.00000     0.31755     3.72909   360.00000     0.31755
    11.60000     3.90436   360.00000     0.31797     3.90436   360.00000     0.31797
    11.70000     4.11064   360.00000     0.31847     4.11064   360.00000     0.31847
    11.80000     4.29439   360.00000     0.31888     4.29439   360.00000     0.31888
    11.90000     4.48202   360.00000     0.31928     4.48202   360.00000     0.31928
    12.00000     4.70327   360.00000     0.31978     4.70327   360.00000     0.31978
    12.10000     4.89953   360.00000     0.32017     4.89953   360.00000     0.32017
    12.20000     5.09972   360.00000     0.32057     5.09972   360.00000     0.32057
    12.30000     5.33621   360.00000     0.32105     5.33621   360.00000     0.32105
    12.40000     5.54517   360.00000     0.32143     5.54517   360.00000     0.32143
    12.50000     5.79226   360.00000     0.32190     5.79226   360.00000     0.32190
    12.60000     6.04520   360.00000     0.32236     6.04520   360.00000     0.32236
    12.70000     6.26788   360.00000     0.32273     6.26788   360.00000     0.32273
    12.80000     6.53159   360.00000     0.32318     6.53159   360.00000     0.32318
    12.90000     6.80122   360.00000     0.32363     6.80122   360.00000     0.32363
    13.00000     7.07681   360.00000     0.32407     7.07681   360.00000     0.32407
    13.10000     7.35838   360.00000     0.32450     7.35838   360.00000     0.32450
    13.20000     7.64596   360.00000     0.32492     7.64596   360.00000     0.32492
    13.30000     7.93957   360.00000     0.32534     7.93957   360.00000     0.32534
    13.40000     8.28248   360.00000     0.32583     8.28248   360.00000     0.32583
    13.50000     8.58926   360.00000     0.32623     8.58926   360.00000     0.32623
    13.60000     8.94763   360.00000     0.32670     8.94763   360.00000     0.32670
    13.70000     9.26768   360.00000     0.32708     9.26768   360.00000     0.32708
    13.80000     9.64163   360.00000     0.32753     9.64163   360.00000     0.32753
    13.90000    10.02402   360.00000     0.32796    10.02402   360.00000     0.32796
    14.00000    10.41486   360.00000     0.32838    10.41486   360.00000     0.32838
    14.10000    10.81419   360.00000     0.32880    10.81419   360.00000     0.32880
    14.20000    11.22201   360.00000     0.32919    11.22201   360.00000     0.32919
    14.30000    11.69243   360.00000     0.32964    11.69243   360.00000     0.32964
    14.40000    12.17403   360.00000     0.33008    12.17403   360.00000     0.33008
    14.50000    90.00000   360.00000     0.32826    90.00000   360.00000     0.32826
    14.60000    90.00000   360.00000     0.32828    90.00000   360.00000     0.32828
    14.70000    90.00000   360.00000     0.32831    90.00000   360.00000     0.32831
    14.80000    90.00000   360.00000     0.32833    90.00000   360.00000     0.32833
    14.90000    90.00000   360.00000     0.32835    90.00000   360.00000     0.32835
    15.00000    90.00000   360.00000     0.32838    90.00000   360.00000     0.32838
    15.10000    90.00000   360.00000     0.32840    90.00000   360.00000     0.32840
    15.20000    90.00000   360.00000     0.32842    90.00000   360.00000     0.32842
    15.30000    90.00000   360.00000     0.32845    90.00000   360.00000     0.32845
    15.40000    90.00000   360.00000     0.32847    90.00000   360.00000     0.32847
    15.50000    90.00000   360.00000     0.32849    90.00000   360.00000     0.32849
    15.60000    90.00000   360.00000     0.32852    90.00000   360.00000     0.32852
    15.70000    90.00000   360.00000     0.32854    90.00000   360.00000     0.32854
    15.80000    90.00000   360.00000     0.32856    90.00000   360.00000     0.32856
    15.90000    90.00000   360.00000     0.32858    90.00000   360.00000     0.32858
    16.00000    90.00000   360.00000     0.32861    90.00000   360.00000     0.32861
    16.10000    90.00000   360.00000     0.32863    90.00000   360.00000     0.32863
    16.20000    90.00000   360.00000     0.32865    90.00000   360.00000     0.32865
    16.30000    90.00000   360.00000     0.32868    90.00000   360.00000     0.32868
    16.40000    90.00000   360.00000     0.32870    90.00000   360.00000     0.32870
    16.50000    90.00000   360.00000     0.32872    90.00000   360.00000     0.32872
    16.60000    90.00000   360.00000     0.32875    90.00000   360.00000     0.32875
    16.70000    90.00000   360.00000     0.32877    90.00000   360.00000     0.32877
    16.80000    90.00000   360.00000     0.32879    90.00000   360.00000     0.32879
    16.90000    90.00000   360.00000     0.32882    90.00000   360.00000     0.32882
    17.00000    90.00000   360.00000     0.32884    90.00000   360.00000     0.32884
    17.10000    90.00000   360.00000     0.32886    90.00000   360.00000     0.32886
    17.20000    90.00000   360.00000     0.32889    90.00000   360.00000     0.32889
    17.30000    90.00000   360.00000     0.32891    90.00000   360.00000     0.32891
    17.40000    90.00000   360.00000     0.32893    90.00000   360.00000     0.32893
    17.50000    90.00000   360.00000     0.32896    90.00000   360.00000     0.32896
    17.60000    90.00000   360.00000     0.32898    90.00000   360.00000     0.32898
    17.70000    90.00000   360.00000     0.32900    90.00000   360.00000     0.32900
    17.80000    90.00000   360.00000     0.32903    90.00000   360.00000     0.32903
    17.90000    90.00000   360.00000     0.32905    90.00000   360.00000     0.32905
    18.00000    90.00000   360.00000     0.32907    90.00000   360.00000     0.32907
    18.10000    90.00000   360.00000     0.32910    90.00000   360.00000     0.32910
    18.20000    90.00000   360.00000     0.32912    90.00000   360.00000     0.32912
    18.30000    90.00000   360.00000     0.32914    90.00000   360.00000     0.32914
    18.40000    90.00000   360.00000     0.32917    90.00000   360.00000     0.32917
    18.50000    90.00000   360.00000     0.32919    90.00000   360.00000     0.32919
    18.60000    90.00000   360.00000     0.32921    90.00000   360.00000     0.32921
    18.70000    90.00000   360.00000     0.32924    90.00000   360.00000     0.32924
    18.80000    90.00000   360.00000     0.32926    90.00000   360.00000     0.32926
    18.90000    90.00000   360.00000     0.32928    90.00000   360.00000     0.32928
    19.00000    90.00000   360.00000     0.32931    90.00000   360.00000     0.32931
    19.10000    90.00000   360.00000     0.32933    90.00000   360.00000     0.32933
    19.20000    90.00000   360.00000     0.32935    90.00000   360.00000     0.32935
    19.30000    90.00000   360.00000     0.32938    90.00000   360.00000     0.32938
    19.40000    90.00000   360.00000     0.32940    90.00000   360.00000     0.32940
    19.50000    90.00000   360.00000     0.32942    90.00000   360.00000     0.32942
    19.60000    90.00000   360.00000     0.32945    90.00000   360.00000     0.32945
    19.70000    90.00000   360.00000     0.32947    90.00000   360.00000     0.32947
    19.80000    90.00000   360.00000     0.32949    90.00000   360.00000     0.32949
    19.90000    90.00000   360.00000     0.32952    90.00000   360.00000     0.32952
    20.00000    90.00000   360.00000     0.32954    90.00000   360.00000     0.32954
    20.10000    90.00000   360.00000     0.32956    90.00000   360.00000     0.32956
    20.20000    90.00000   360.00000     0.32959    90.00000   360.00000     0.32959
    20.30000    90.00000   360.00000     0.32961    90.00000   360.00000     0.32961
    20.40000    90.00000   360.00000     0.32964    90.00000   360.00000     0.32964
    20.50000    90.00000   360.00000     0.32966    90.00000   360.00000     0.32966
    20.60000    90.00000   360.00000     0.32968    90.00000   360.00000     0.32968
    20.70000    90.00000   360.00000     0.32971    90.00000   360.00000     0.32971
    20.80000    90.00000   360.00000     0.32973    90.00000   360.00000     0.32973
    20.90000    90.00000   360.00000     0.32975    90.00000   360.00000     0.32975
    21.00000    90.00000   360.00000     0.32978    90.00000   360.00000     0.32978
    21.10000    90.00000   360.00000     0.32980    90.00000   360.00000     0.32980
    21.20000    90.00000   360.00000     0.32982    90.00000   360.00000     0.32982
    21.30000    90.00000   360.00000     0.32985    90.00000   360.00000     0.32985
    21.40000    90.00000   360.00000     0.32987    90.00000   360.00000     0.32987
    21.50000    90.00000   360.00000     0.32989    90.00000   360.00000     0.32989
    21.60000    90.00000   360.00000     0.32992    90.00000   360.00000     0.32992
    21.70000    90.00000   360.00000     0.32994    90.00000   360.00000     0.32994
    21.80000    90.00000   360.00000     0.32996    90.00000   360.00000     0.32996
    21.90000    90.00000   360.00000     0.32999    90.00000   360.00000     0.32999
    22.00000    90.00000   360.00000     0.33001    90.00000   360.00000     0.33001
    22.10000    90.00000   360.00000     0.33003    90.00000   360.00000     0.33003
    22.20000    90.00000   360.00000     0.33006    90.00000   360.00000     0.33006
    22.30000    90.00000   360.00000     0.33008    90.00000   360.00000     0.33008
    22.40000    90.00000   360.00000     0.33010    90.00000   360.00000     0.33010
    22.50000    90.00000   360.00000     0.33013    90.00000   360.00000     0.33013
    22.60000    90.00000   360.00000     0.33015    90.00000   360.00000     0.33015
    22.70000    90.00000   360.00000     0.33017    90.00000   360.00000     0.33017
    22.80000    90.00000   360.00000     0.33020    90.00000   360.00000     0.33020
    22.90000    90.00000   360.00000     0.33022    90.00000   360.00000     0.33022
    23.00000    90.00000   360.00000     0.33024    90.00000   360.00000     0.33024
    23.10000    90.00000   360.00000     0.33027    90.00000   360.00000     0.33027
    23.20000    90.00000   360.00000     0.33029    90.00000   360.00000     0.33029
    23.30000    90.00000   360.00000     0.33031    90.00000   360.00000     0.33031
