 # applied field (T), magnetization (2 f.u.), magnetization (T)
 # T=0 1st order approx.
 # K1(0) (K, MJ/m^3)   141.673325212347        11.2216744363760     
 # K2(0) (K, MJ/m^3)  -8.92202743929787      -0.706696811740316     
 # from A20
 # K1(0) from A20 (K, MJ/m^3)   525.906889698310        20.8280418744884     
  0.000000000000000E+000  3.371516618237438E-015  1.127091291504769E-016
  0.100000000000000       0.177909991232625       5.947495578260266E-003
  0.200000000000000       0.355817309724387       1.189490180732570E-002
  0.300000000000000       0.533719282766102       1.784212933906059E-002
  0.400000000000000       0.711613237711967       2.378908882744788E-002
  0.500000000000000       0.889496502011179       2.973569092964650E-002
  0.600000000000000        1.06736640323963       3.568184630705074E-002
  0.700000000000000        1.24522026913155       4.162746562634800E-002
  0.800000000000000        1.42305542761111       4.757245956057516E-002
  0.900000000000000        1.60086920682403       5.351673879017627E-002
   1.00000000000000        1.82296774459463       6.094144867958050E-002
   1.10000000000000        2.00072366957525       6.688379385371675E-002
   1.20000000000000        2.17844953523655       7.282513415079414E-002
   1.30000000000000        2.35614267101930       7.876538029454896E-002
   1.40000000000000        2.53380040675123       8.470444302165481E-002
   1.50000000000000        2.71142007267855       9.064223308277349E-002
   1.60000000000000        2.88899899949715       9.657866124360043E-002
   1.70000000000000        3.06653451838389       0.102513638285910     
   1.80000000000000        3.24402396102783       0.108447075008597     
   1.90000000000000        3.42146465966131       0.114378882228722     
   2.00000000000000        3.59885394709105       0.120308970782544     
   2.10000000000000        3.77618915672919       0.126237251526561     
   2.20000000000000        3.95346762262412       0.132163635338543     
   2.30000000000000        4.13068667949143       0.138088033118562     
   2.40000000000000        4.30784366274462       0.144010355790022     
   2.50000000000000        4.48493590852581       0.149930514300686     
   2.60000000000000        4.66196075373632       0.155848419623693     
   2.70000000000000        4.88300892930207       0.163238016113756     
   2.80000000000000        5.05987243439639       0.169150527868808     
   2.90000000000000        5.23665989107012       0.175060497340304     
   3.00000000000000        5.41336863979444       0.180967835620724     
   3.10000000000000        5.58999602195897       0.186872453833255     
   3.20000000000000        5.76653937990175       0.192774263132784     
   3.30000000000000        5.94299605693910       0.198673174706906     
   3.40000000000000        6.11936339739543       0.204569099776915     
   3.50000000000000        6.29563874663281       0.210461949598794     
   3.60000000000000        6.47181945108059       0.216351635464204     
   3.70000000000000        6.64790285826471       0.222238068701465     
   3.80000000000000        6.82388631683705       0.228121160676538     
   3.90000000000000        6.99976717660457       0.234000822793997     
   4.00000000000000        7.17554278855832       0.239876966498000     
   4.10000000000000        7.39497700178270       0.247212608548393     
   4.20000000000000        7.57050619437290       0.253080514502144     
   4.30000000000000        7.74592154007475       0.258944614577090     
   4.40000000000000        7.92122039523841       0.264804820396541     
   4.50000000000000        8.09640011754847       0.270661043628420     
   4.60000000000000        8.27145806605217       0.276513195986203     
   4.70000000000000        8.44639160118740       0.282361189229853     
   4.80000000000000        8.62119808481062       0.288204935166757     
   4.90000000000000        8.79587488022464       0.294044345652653     
   5.00000000000000        8.97041935220613       0.299879332592551     
   5.10000000000000        9.14482886703313       0.305709807941650     
   5.20000000000000        9.31910079251241       0.311535683706253     
   5.30000000000000        9.53661088460474       0.318807002770366     
   5.40000000000000        9.71056370650154       0.324622210965753     
   5.50000000000000        9.88437039706570       0.330432534019790     
   5.60000000000000        10.0580283309093       0.336237884166282     
   5.70000000000000        10.2315348843141       0.342038173694850     
   5.80000000000000        10.4048874352579       0.347833314951814     
   5.90000000000000        10.5780833634407       0.353623220341067     
   6.00000000000000        10.7511200503107       0.359407802324946     
   6.10000000000000        10.9239948790905       0.365186973425099     
   6.20000000000000        11.0967052348023       0.370960646223345     
   6.30000000000000        11.3122265746524       0.378165481696037     
   6.40000000000000        11.4845574211250       0.383926467575989     
   6.50000000000000        11.6567153104310       0.389681671532305     
   6.60000000000000        11.8286976355347       0.395431006412301     
   6.70000000000000        12.0005017913332       0.401174385127899     
   6.80000000000000        12.1721251746808       0.406911720656467     
   6.90000000000000        12.3435651844143       0.412642926041632     
   7.00000000000000        12.5148192213772       0.418367914394108     
   7.10000000000000        12.6858846884439       0.424086598892507     
   7.20000000000000        12.8993171155731       0.431221602428920     
   7.30000000000000        13.0699489393326       0.436925790317916     
   7.40000000000000        13.2403837687799       0.442623392726282     
   7.50000000000000        13.4106190156999       0.448314323130505     
   7.60000000000000        13.5806520940345       0.453998495079176     
   7.70000000000000        13.7504804199059       0.459675822193778     
   7.80000000000000        13.9201014116405       0.465346218169474     
   7.90000000000000        14.1317028230325       0.472420011214419     
   8.00000000000000        14.3008480234420       0.478074501580864     
   8.10000000000000        14.4697775167697       0.483721780902523     
   8.20000000000000        14.6384887309774       0.489361763196667     
   8.30000000000000        14.8069790963519       0.494994362558294     
   8.40000000000000        14.9752460455276       0.500619493160889     
   8.50000000000000        15.1432870135097       0.506237069257183     
   8.60000000000000        15.3528882442958       0.513243996662784     
   8.70000000000000        15.5204115415792       0.518844267130708     
   8.80000000000000        15.6877005401469       0.524436705039223     
   8.90000000000000        15.8547526853399       0.530021224986589     
   9.00000000000000        16.0215654249875       0.535597741654244     
   9.10000000000000        16.1881362094290       0.541166169807547     
   9.20000000000000        16.3958782587503       0.548110945147015     
   9.30000000000000        16.5618955008344       0.553660868489537     
   9.40000000000000        16.7276625210548       0.559202426964987     
   9.50000000000000        16.8931767806773       0.564735535703980     
   9.60000000000000        17.0584357435934       0.570260109924921     
   9.70000000000000        17.2645201687240       0.577149471217790     
   9.80000000000000        17.4291956323674       0.582654539174239     
   9.90000000000000        17.5936075775465       0.588150797760904     
   10.0000000000000        17.7577534795698       0.593638162577850     
   10.1000000000000        17.9216308164869       0.599116549316777     
   10.2000000000000        18.1259705254884       0.605947585096889     
   10.3000000000000        18.2892345732105       0.611405469700157     
   10.4000000000000        18.4522218809364       0.616854102940464     
   10.5000000000000        18.6149299386231       0.622293400907566     
   10.6000000000000        18.7773562390844       0.627723279786733     
   10.7000000000000        18.9798646386121       0.634493095255818     
   10.8000000000000        19.1416480341144       0.639901481950234     
   10.9000000000000        19.3031415463464       0.645300177904647     
   11.0000000000000        19.4643426805242       0.650689099718935     
   11.1000000000000        19.6653055730573       0.657407249196959     
   11.2000000000000        19.8258399611229       0.662773881821491     
   11.3000000000000        19.9860738861049       0.668130470024968     
   11.4000000000000        20.1460048660301       0.673476930835526     
   11.5000000000000        20.3056304219974       0.678813181383994     
   11.6000000000000        20.5046066505841       0.685464917081911     
   11.7000000000000        20.6635361783228       0.690777899545301     
   11.8000000000000        20.8221522495864       0.696080403221150     
   11.9000000000000        20.9804523988023       0.701372345685858     
   12.0000000000000        21.1777580893094       0.707968235628443     
   12.1000000000000        21.3353386491586       0.713236122363919     
   12.2000000000000        21.4925952985063       0.718493180835832     
   12.3000000000000        21.6885861619821       0.725045116372591     
   12.4000000000000        21.8451052947031       0.730277519810540     
   12.5000000000000        22.0012925631378       0.735498829091488     
   12.6000000000000        22.1571455263066       0.740708962613965     
   12.7000000000000        22.3513682271331       0.747201788825469     
   12.8000000000000        22.5064603482242       0.752386487548804     
   12.9000000000000        22.6612102569010       0.757559746179276     
   13.0000000000000        22.8540438634044       0.764006135244178     
   13.1000000000000        23.0080151882041       0.769153365970685     
   13.2000000000000        23.1616364301516       0.774288893497160     
   13.3000000000000        23.3530490059382       0.780687777788179     
   13.4000000000000        23.5058740059525       0.785796687105389     
   13.5000000000000        23.6583410903252       0.790893631373970     
   13.6000000000000        23.8483008523857       0.797243948391440     
   13.7000000000000        23.9999541226579       0.802313687016703     
   13.8000000000000        24.1512416831213       0.807371200035887     
   13.9000000000000        24.3397170057664       0.813671892539308     
   14.0000000000000        24.4901732680818       0.818701615426947     
   14.1000000000000        24.6402560660582       0.823718853476105     
   14.2000000000000        24.8272154850113       0.829968869620975     
   14.3000000000000        24.9764495912340       0.834957736073812     
   14.4000000000000        25.1253025192805       0.839933859816128     
   14.5000000000000        25.3107147359385       0.846132153296381     
   14.6000000000000        25.4587016714860       0.851079327081905     
   14.7000000000000        25.6062997568135       0.856013501682012     
   14.8000000000000        25.7901336426844       0.862159031878354     
   14.9000000000000        25.9368485301472       0.867063681349722     
   15.0000000000000        26.0831669382857       0.871955076596233     
   15.1000000000000        26.2653915396078       0.878046808730578     
   15.2000000000000        26.4108096425183       0.882908106952604     
   15.3000000000000        26.5919022088394       0.888961995382298     
   15.4000000000000        26.7364082236812       0.893792802681817     
   15.5000000000000        26.8805049504345       0.898609927562039     
   15.6000000000000        27.0599362639252       0.904608280640434     
   15.7000000000000        27.2031039673739       0.909394348456590     
   15.8000000000000        27.3813674577440       0.915353661440619     
   15.9000000000000        27.5235944770568       0.920108282373436     
   16.0000000000000        27.6653995320254       0.924848797122257     
   16.1000000000000        27.8419503401007       0.930750855478233     
   16.2000000000000        27.9827979561348       0.935459363234134     
   16.3000000000000        28.1581455348887       0.941321197873507     
   16.4000000000000        28.2980241790820       0.945997313093730     
   16.5000000000000        28.4721541598715       0.951818443675619     
   16.6000000000000        28.6110523534302       0.956461782626372     
   16.7000000000000        28.7839504359148       0.962241731093248     
   16.8000000000000        28.9218567552192       0.966851911885201     
   16.9000000000000        29.0593184241992       0.971447228105355     
   17.0000000000000        29.2304117863748       0.977166845131690     
   17.1000000000000        29.3668651771832       0.981728454813353     
   17.2000000000000        29.5366919771548       0.987405730917429     
   17.3000000000000        29.6721258056260       0.991933256833195     
   17.4000000000000        29.8406719886282       0.997567722167000     
   17.5000000000000        29.9750750295558        1.00206078906045     
   17.6000000000000        30.1423266151824        1.00765197626180     
   17.7000000000000        30.2756877034455        1.01211021088517     
   17.8000000000000        30.4416307870531        1.01765765512459     
   17.9000000000000        30.5739388187509        1.02208068627669     
   18.0000000000000        30.7385595728694        1.02758392530461     
   18.1000000000000        30.8698035064609        1.03197138386892     
   18.2000000000000        31.0330881822093        1.03742995806300     
   18.3000000000000        31.1632570396546        1.04178147704583     
   18.4000000000000        31.3251919681562        1.04719492945823     
   18.5000000000000        31.4542748360569        1.05151014402684     
   18.6000000000000        31.6148464298503        1.05687802043144     
   18.7000000000000        31.7428324605839        1.06115656795198     
   18.8000000000000        31.9020272150249        1.06647841689121     
   18.9000000000000        32.0289056278705        1.07071993696632     
   19.0000000000000        32.1867101225201        1.07599530979758     
   19.1000000000000        32.3124702047710        1.08019944430361     
   19.2000000000000        32.4688711047632        1.08542789524498     
   19.3000000000000        32.5935022128213        1.08959428836857     
   19.4000000000000        32.7484862702071        1.09477537454376     
   19.5000000000000        32.8719778306560        1.09890367281770     
   19.6000000000000        33.0255318857159        1.10403695429990     
   19.7000000000000        33.1478733963664        1.10812680663809     
   19.8000000000000        33.2999843788875        1.11321184649269     
   19.9000000000000        33.4211654097924        1.11726290422409     
   20.0000000000000        33.5718203403019        1.12229926854990     
   20.1000000000000        33.6918305347346        1.12631118545119     
   20.2000000000000        33.8410165256860        1.13129844342008     
   20.3000000000000        33.9893811647973        1.13625824376053     
   20.4000000000000        34.1075498579809        1.14020859964178     
   20.5000000000000        34.2544256984930        1.14511862974153     
   20.6000000000000        34.3713974293046        1.14902897140905     
   20.7000000000000        34.5167718235314        1.15388880845847     
   20.8000000000000        34.6325365027957        1.15775879863313     
   20.9000000000000        34.7763968987065        1.16256802302035     
   21.0000000000000        34.8909445143291        1.16639732699983     
   21.1000000000000        35.0332784564373        1.17115552234040     
   21.2000000000000        35.1465990740939        1.17494380802222     
   21.3000000000000        35.2873942042641        1.17965056118614     
   21.4000000000000        35.4273294105306        1.18432856726521     
   21.5000000000000        35.5387220261896        1.18805240022418     
   21.6000000000000        35.6770993944596        1.19267832808925     
   21.7000000000000        35.7872399838587        1.19636030605968     
   21.8000000000000        35.9240474077648        1.20093375099730     
   21.9000000000000        36.0329263175650        1.20457355126999     
   22.0000000000000        36.1681517902221        1.20909411189238     
   22.1000000000000        36.3024935338304        1.21358512962865     
   22.2000000000000        36.4093910614595        1.21715869268993     
   22.3000000000000        36.5421323772919        1.22159620844437     
   22.4000000000000        36.6477439214944        1.22512678133578     
   22.5000000000000        36.7788730582667        1.22951040226528     
   22.6000000000000        36.8831892510780        1.23299767181764     
   22.7000000000000        37.0126945578321        1.23732700843299     
   22.8000000000000        37.1157061118421        1.24077066417003     
   22.9000000000000        37.2435760379370        1.24504533033562     
   23.0000000000000        37.3705327588815        1.24928946823488     
   23.1000000000000        37.4714968412408        1.25266467740236     
   23.2000000000000        37.5968004147935        1.25685355091352     
   23.3000000000000        37.6964364907543        1.26018436509156     
   23.4000000000000        37.8200756217371        1.26431759661906     
   23.5000000000000        37.9427855167056        1.26841976397165     
   23.6000000000000        38.0403381819152        1.27168093014316     
   23.7000000000000        38.1613662630104        1.27572687479287     
   23.8000000000000        38.2575680760870        1.27894288224659     
   23.9000000000000        38.3769033010008        1.28293223505127     
   24.0000000000000        38.4717454625461        1.28610278962505     
   24.1000000000000        38.5893768868946        1.29003518471613     
   24.2000000000000        38.7060573656179        1.29393578988433     
   24.3000000000000        38.7987674525204        1.29703506962737     
   24.4000000000000        38.9137273001535        1.30087815444087     
   24.5000000000000        39.0050556038979        1.30393124144811     
   24.6000000000000        39.1182841226679        1.30771644828248     
   24.7000000000000        39.2305465108620        1.31146935756410     
   24.8000000000000        39.3197087068059        1.31445003201892     
   24.9000000000000        39.4302233144565        1.31814451334502     
   25.0000000000000        39.5179820962470        1.32107827194416     
   25.1000000000000        39.6267384662481        1.32471397573577     
   25.2000000000000        39.7345138613631        1.32831688573228     
   25.3000000000000        39.8200732706439        1.33117711974641     
   25.4000000000000        39.9260743454141        1.33472071456713     
   25.5000000000000        40.0310855725220        1.33823121897762     
   25.6000000000000        40.1144257289465        1.34101726381069     
   25.7000000000000        40.2176467724771        1.34446792274068     
   25.8000000000000        40.3198692160909        1.34788519867432     
   25.9000000000000        40.4009705116104        1.35059639883318     
   26.0000000000000        40.5013871241796        1.35395330619460     
   26.1000000000000        40.6007965031030        1.35727654193582     
   26.2000000000000        40.6796395976349        1.35991225088536     
   26.3000000000000        40.7772277104557        1.36317460206346     
   26.4000000000000        40.8738000726813        1.36640299690143     
   26.5000000000000        40.9693536704160        1.36959733464534     
   26.6000000000000        41.0451017610375        1.37212957823049     
   26.7000000000000        41.1388134796012        1.37526234232051     
   26.8000000000000        41.2314980730300        1.37836076982181     
