 # applied field (T), magnetization (2 f.u.), magnetization (T)
 # T=0 1st order approx.
 # K1(0) (K, MJ/m^3)   65.8199818918415        5.36625324871224     
 # K2(0) (K, MJ/m^3)  -14.8420016222282       -1.21005714576999     
 # from A20
 # K1(0) from A20 (K, MJ/m^3)   48.8576943235807        1.99166539820184     
  0.000000000000000E+000  2.633166924455047E-015  9.060580207879121E-017
  0.100000000000000       0.373604815741826       1.285553288566876E-002
  0.200000000000000       0.747192620126148       2.571048042003421E-002
  0.300000000000000        1.06746397865530       3.673083885340770E-002
  0.400000000000000        1.44097504941200       4.958314602653614E-002
  0.500000000000000        1.81442050517510       6.243319542441042E-002
  0.600000000000000        2.18778333812156       7.528040181734542E-002
  0.700000000000000        2.50780958845923       8.629232621485143E-002
  0.800000000000000        2.88097384007253       9.913269953510793E-002
  0.900000000000000        3.25400688322748       0.111968558045651     
   1.00000000000000        3.62689171914222       0.124799316827898     
   1.10000000000000        3.99961135225159       0.137624391073951     
   1.20000000000000        4.37214879055369       0.150443196098522     
   1.30000000000000        4.69138814378586       0.161428043806460     
   1.40000000000000        5.06354211153398       0.174233653823607     
   1.50000000000000        5.43546535524196       0.187031324755495     
   1.60000000000000        5.80714089972984       0.199820472495669     
   1.70000000000000        6.17855177494457       0.212600513114089     
   1.80000000000000        6.54968101625344       0.225370862867227     
   1.90000000000000        6.92051166472619       0.238130938207769     
   2.00000000000000        7.29102676740506       0.250880155793917     
   2.10000000000000        7.66120937756238       0.263617932498243     
   2.20000000000000        8.03104255494510       0.276343685416108     
   2.30000000000000        8.40050936600551       0.289056831873600     
   2.40000000000000        8.76959288411809       0.301756789434997     
   2.50000000000000        9.13827618978155       0.314442975909715     
   2.60000000000000        9.50654237080601       0.327114809358755     
   2.70000000000000        9.87437452248475       0.339771708100606     
   2.80000000000000        10.2417557477501       0.352413090716614     
   2.90000000000000        10.6609678349716       0.366837944322007     
   3.00000000000000        11.0273260258338       0.379444124896024     
   3.10000000000000        11.3931802402916       0.392032963923657     
   3.20000000000000        11.8105825676270       0.406395544702924     
   3.30000000000000        12.1753001668054       0.418945273434097     
   3.40000000000000        12.5394608199277       0.431475837962785     
   3.50000000000000        12.9548631825876       0.445769601075434     
   3.60000000000000        13.3177738144510       0.458257153071292     
   3.70000000000000        13.7317037100097       0.472500249414014     
   3.80000000000000        14.1448122977308       0.486715085013110     
   3.90000000000000        14.5056563486911       0.499131527115194     
   4.00000000000000        14.9171572997771       0.513291044836256     
   4.10000000000000        15.3277649193368       0.527419823518819     
   4.20000000000000        15.7374541848781       0.541517002152916     
   4.30000000000000        16.1462000878568       0.555581720208520     
   4.40000000000000        16.5539776334771       0.569613117628680     
   4.50000000000000        16.9607618404678       0.583610334821817     
   4.60000000000000        17.3665277408374       0.597572512653295     
   4.70000000000000        17.8216999519682       0.613234734022726     
   4.80000000000000        18.2252192947316       0.627119609062677     
   4.90000000000000        18.6778012031169       0.642692699562471     
   5.00000000000000        19.0789614465021       0.656496399311419     
   5.10000000000000        19.5288265355301       0.671976005575673     
   5.20000000000000        19.9772022451580       0.687404363127253     
   5.30000000000000        20.4240531775489       0.702780253946371     
   5.40000000000000        20.8693439528930       0.718102460633547     
   5.50000000000000        21.3621815048059       0.735060725326493     
   5.60000000000000        21.8040627504462       0.750265612002298     
   5.70000000000000        22.2930249750711       0.767090528849351     
   5.80000000000000        22.7798774774898       0.783842851334506     
   5.90000000000000        23.2645718785107       0.800520914756819     
   6.00000000000000        23.7951352619878       0.818777304227275     
   6.10000000000000        24.2751405791370       0.835294018894499     
   6.20000000000000        24.8004294150305       0.853368914130778     
   6.30000000000000        25.3701674679111       0.872973282078981     
   6.40000000000000        25.9364238911179       0.892457849096143     
   6.50000000000000        26.4991154963128       0.911819752718050     
   6.60000000000000        27.0581591731351       0.931056133163639     
   6.70000000000000        27.7055763055316       0.953333394819764     
   6.80000000000000        28.3021222799384       0.973860208363567     
   6.90000000000000        28.9846546046542       0.997345764159987     
   7.00000000000000        29.7057334142417        1.02215768295553     
   7.10000000000000        30.4638058748390        1.04824253260496     
   7.20000000000000        31.2571562359656        1.07554127509325     
   7.30000000000000        32.1270747170336        1.10547468379147     
   7.40000000000000        53.7753677299165        1.85038034619070     
   7.50000000000000        53.7754117557842        1.85038186109620     
   7.60000000000000        53.7754557870887        1.85038337618878     
   7.70000000000000        53.7754998238311        1.85038489146847     
   7.80000000000000        53.7755438660123        1.85038640693531     
   7.90000000000000        53.7755879136332        1.85038792258932     
   8.00000000000000        53.7756319666948        1.85038943843055     
   8.10000000000000        53.7756760251980        1.85039095445902     
   8.20000000000000        53.7757200891438        1.85039247067476     
   8.30000000000000        53.7757641585331        1.85039398707782     
   8.40000000000000        53.7758082333669        1.85039550366821     
   8.50000000000000        53.7758523136461        1.85039702044598     
   8.60000000000000        53.7758963993716        1.85039853741115     
   8.70000000000000        53.7759404905444        1.85040005456377     
   8.80000000000000        53.7759845871655        1.85040157190385     
   8.90000000000000        53.7760286892358        1.85040308943144     
   9.00000000000000        53.7760727967562        1.85040460714656     
   9.10000000000000        53.7761169097278        1.85040612504926     
   9.20000000000000        53.7761610281513        1.85040764313955     
   9.30000000000000        53.7762051520278        1.85040916141748     
   9.40000000000000        53.7762492813583        1.85041067988307     
   9.50000000000000        53.7762934161436        1.85041219853637     
   9.60000000000000        53.7763375563848        1.85041371737740     
   9.70000000000000        53.7763817020828        1.85041523640619     
   9.80000000000000        53.7764258532384        1.85041675562278     
   9.90000000000000        53.7764700098528        1.85041827502720     
   10.0000000000000        53.7765141719267        1.85041979461948     
   10.1000000000000        53.7765583394613        1.85042131439965     
   10.2000000000000        53.7766025124573        1.85042283436776     
   10.3000000000000        53.7766466909158        1.85042435452382     
   10.4000000000000        53.7766908748378        1.85042587486788     
   10.5000000000000        53.7767350642241        1.85042739539996     
   10.6000000000000        53.7767792590757        1.85042891612010     
   10.7000000000000        53.7768234593936        1.85043043702834     
   10.8000000000000        53.7768676651787        1.85043195812469     
   10.9000000000000        53.7769118764320        1.85043347940921     
   11.0000000000000        53.7769560931544        1.85043500088191     
   11.1000000000000        53.7770003153468        1.85043652254283     
   11.2000000000000        53.7770445430103        1.85043804439201     
   11.3000000000000        53.7770887761458        1.85043956642948     
   11.4000000000000        53.7771330147541        1.85044108865527     
   11.5000000000000        53.7771772588364        1.85044261106941     
   11.6000000000000        53.7772215083935        1.85044413367193     
   11.7000000000000        53.7772657634263        1.85044565646288     
   11.8000000000000        53.7773100239359        1.85044717944227     
   11.9000000000000        53.7773542899231        1.85044870261015     
   12.0000000000000        53.7773985613890        1.85045022596655     
   12.1000000000000        53.7774428383345        1.85045174951149     
   12.2000000000000        53.7774871207605        1.85045327324502     
   12.3000000000000        53.7775314086680        1.85045479716716     
   12.4000000000000        53.7775757020580        1.85045632127796     
   12.5000000000000        53.7776200009313        1.85045784557743     
   12.6000000000000        53.7776643052890        1.85045937006561     
   12.7000000000000        53.7777086151320        1.85046089474254     
   12.8000000000000        53.7777529304612        1.85046241960825     
   12.9000000000000        53.7777972512777        1.85046394466277     
   13.0000000000000        53.7778415775824        1.85046546990614     
   13.1000000000000        53.7778859093761        1.85046699533838     
   13.2000000000000        53.7779302466599        1.85046852095954     
   13.3000000000000        53.7779745894348        1.85047004676964     
   13.4000000000000        53.7780189377016        1.85047157276871     
   13.5000000000000        53.7780632914614        1.85047309895679     
   13.6000000000000        53.7781076507151        1.85047462533392     
   13.7000000000000        53.7781520154636        1.85047615190012     
   13.8000000000000        53.7781963857079        1.85047767865542     
   13.9000000000000        53.7782407614490        1.85047920559987     
   14.0000000000000        53.7782851426878        1.85048073273349     
   14.1000000000000        53.7783295294253        1.85048226005632     
   14.2000000000000        53.7783739216624        1.85048378756839     
   14.3000000000000        53.7784183194001        1.85048531526972     
   14.4000000000000        53.7784627226394        1.85048684316037     
   14.5000000000000        53.7785071313811        1.85048837124035     
   14.6000000000000        53.7785515456263        1.85048989950970     
   14.7000000000000        53.7785959653759        1.85049142796846     
   14.8000000000000        53.7786403906309        1.85049295661665     
   14.9000000000000        53.7786848213922        1.85049448545431     
   15.0000000000000        53.7787292576608        1.85049601448148     
   15.1000000000000        53.7787736994376        1.85049754369818     
   15.2000000000000        53.7788181467237        1.85049907310445     
   15.3000000000000        53.7788625995199        1.85050060270032     
   15.4000000000000        53.7789070578272        1.85050213248582     
   15.5000000000000        53.7789515216466        1.85050366246100     
   15.6000000000000        53.7789959909790        1.85050519262587     
   15.7000000000000        53.7790404658255        1.85050672298048     
   15.8000000000000        53.7790849461868        1.85050825352485     
   15.9000000000000        53.7791294320642        1.85050978425902     
   16.0000000000000        53.7791739234583        1.85051131518303     
   16.1000000000000        53.7792184203703        1.85051284629690     
   16.2000000000000        53.7792629228011        1.85051437760067     
   16.3000000000000        53.7793074307517        1.85051590909437     
   16.4000000000000        53.7793519442230        1.85051744077803     
   16.5000000000000        53.7793964632159        1.85051897265170     
   16.6000000000000        53.7794409877315        1.85052050471539     
   16.7000000000000        53.7794855177707        1.85052203696915     
   16.8000000000000        53.7795300533344        1.85052356941301     
   16.9000000000000        53.7795745944236        1.85052510204699     
   17.0000000000000        53.7796191410394        1.85052663487114     
   17.1000000000000        53.7796636931825        1.85052816788548     
   17.2000000000000        53.7797082508541        1.85052970109006     
   17.3000000000000        53.7797528140551        1.85053123448489     
   17.4000000000000        53.7797973827863        1.85053276807002     
   17.5000000000000        53.7798419570489        1.85053430184548     
   17.6000000000000        53.7798865368437        1.85053583581131     
   17.7000000000000        53.7799311221717        1.85053736996752     
   17.8000000000000        53.7799757130339        1.85053890431417     
   17.9000000000000        53.7800203094312        1.85054043885127     
   18.0000000000000        53.7800649113647        1.85054197357887     
   18.1000000000000        53.7801095188352        1.85054350849700     
   18.2000000000000        53.7801541318437        1.85054504360569     
   18.3000000000000        53.7801987503913        1.85054657890497     
   18.4000000000000        53.7802433744788        1.85054811439488     
   18.5000000000000        53.7802880041072        1.85054965007545     
   18.6000000000000        53.7803326392775        1.85055118594671     
   18.7000000000000        53.7803772799907        1.85055272200870     
   18.8000000000000        53.7804219262476        1.85055425826144     
   18.9000000000000        53.7804665780494        1.85055579470498     
   19.0000000000000        53.7805112353969        1.85055733133935     
   19.1000000000000        53.7805558982911        1.85055886816458     
   19.2000000000000        53.7806005667330        1.85056040518070     
   19.3000000000000        53.7806452407236        1.85056194238774     
   19.4000000000000        53.7806899202637        1.85056347978574     
   19.5000000000000        53.7807346053544        1.85056501737474     
   19.6000000000000        53.7807792959967        1.85056655515476     
   19.7000000000000        53.7808239921915        1.85056809312584     
   19.8000000000000        53.7808686939397        1.85056963128801     
   19.9000000000000        53.7809134012424        1.85057116964131     
   20.0000000000000        53.7809581141005        1.85057270818576     
   20.1000000000000        53.7810028325150        1.85057424692141     
   20.2000000000000        53.7810475564868        1.85057578584828     
   20.3000000000000        53.7810922860169        1.85057732496641     
   20.4000000000000        53.7811370211063        1.85057886427583     
   20.5000000000000        53.7811817617559        1.85058040377658     
   20.6000000000000        53.7812265079668        1.85058194346868     
   20.7000000000000        53.7812712597398        1.85058348335218     
   20.8000000000000        53.7813160170760        1.85058502342710     
   20.9000000000000        53.7813607799763        1.85058656369348     
   21.0000000000000        53.7814055484417        1.85058810415135     
   21.1000000000000        53.7814503224732        1.85058964480075     
   21.2000000000000        53.7814951020717        1.85059118564170     
   21.3000000000000        53.7815398872381        1.85059272667425     
   21.4000000000000        53.7815846779736        1.85059426789842     
   21.5000000000000        53.7816294742790        1.85059580931425     
   21.6000000000000        53.7816742761552        1.85059735092177     
   21.7000000000000        53.7817190836034        1.85059889272102     
   21.8000000000000        53.7817638966244        1.85060043471202     
   21.9000000000000        53.7818087152192        1.85060197689482     
   22.0000000000000        53.7818535393888        1.85060351926944     
   22.1000000000000        53.7818983691342        1.85060506183592     
   22.2000000000000        53.7819432044563        1.85060660459429     
   22.3000000000000        53.7819880453561        1.85060814754459     
   22.4000000000000        53.7820328918345        1.85060969068685     
   22.5000000000000        53.7820777438926        1.85061123402110     
   22.6000000000000        53.7821226015313        1.85061277754737     
   22.7000000000000        53.7821674647516        1.85061432126571     
   22.8000000000000        53.7822123335545        1.85061586517614     
   22.9000000000000        53.7822572079409        1.85061740927869     
   23.0000000000000        53.7823020879118        1.85061895357340     
   23.1000000000000        53.7823469734682        1.85062049806031     
   23.2000000000000        53.7823918646110        1.85062204273944     
   23.3000000000000        53.7824367613412        1.85062358761083     
   23.4000000000000        53.7824816636599        1.85062513267452     
   23.5000000000000        53.7825265715679        1.85062667793054     
   23.6000000000000        53.7825714850662        1.85062822337891     
   23.7000000000000        53.7826164041559        1.85062976901968     
   23.8000000000000        53.7826613288378        1.85063131485287     
   23.9000000000000        53.7827062591131        1.85063286087853     
   24.0000000000000        53.7827511949825        1.85063440709668     
   24.1000000000000        53.7827961364472        1.85063595350736     
   24.2000000000000        53.7828410835081        1.85063750011060     
   24.3000000000000        53.7828860361661        1.85063904690644     
   24.4000000000000        53.7829309944223        1.85064059389491     
   24.5000000000000        53.7829759582776        1.85064214107603     
   24.6000000000000        53.7830209277329        1.85064368844986     
   24.7000000000000        53.7830659027894        1.85064523601641     
   24.8000000000000        53.7831108834479        1.85064678377573     
   24.9000000000000        53.7831558697094        1.85064833172784     
   25.0000000000000        53.7832008615749        1.85064987987279     
   25.1000000000000        53.7832458590453        1.85065142821059     
   25.2000000000000        53.7832908621217        1.85065297674130     
   25.3000000000000        53.7833358708051        1.85065452546494     
   25.4000000000000        53.7833808850963        1.85065607438154     
   25.5000000000000        53.7834259049964        1.85065762349114     
   25.6000000000000        53.7834709305064        1.85065917279377     
   25.7000000000000        53.7835159616272        1.85066072228947     
   25.8000000000000        53.7835609983599        1.85066227197826     
   25.9000000000000        53.7836060407053        1.85066382186019     
   26.0000000000000        53.7836510886645        1.85066537193529     
   26.1000000000000        53.7836961422384        1.85066692220358     
   26.2000000000000        53.7837412014280        1.85066847266511     
   26.3000000000000        53.7837862662344        1.85067002331991     
   26.4000000000000        53.7838313366584        1.85067157416801     
   26.5000000000000        53.7838764127011        1.85067312520945     
   26.6000000000000        53.7839214943635        1.85067467644425     
   26.7000000000000        53.7839665816465        1.85067622787246     
   26.8000000000000        53.7840116745510        1.85067777949410     
