 # applied field (T), theta (degree), phi (degree), abs for RE 1-2
     0.00000     0.00000     0.00000     0.29499     0.00000     0.00000     0.00000
     0.10000     0.08757   360.00000     0.29499     0.00000     0.00000     0.00000
     0.20000     0.17520   360.00000     0.29500     0.00000     0.00000     0.00000
     0.30000     0.26295   360.00000     0.29502     0.00000     0.00000     0.00000
     0.40000     0.34515   360.00000     0.29503     0.00000     0.00000     0.00000
     0.50000     0.43328   360.00000     0.29506     0.00000     0.00000     0.00000
     0.60000     0.52171   360.00000     0.29510     0.00000     0.00000     0.00000
     0.70000     0.61050   360.00000     0.29514     0.00000     0.00000     0.00000
     0.80000     0.69970   360.00000     0.29519     0.00000     0.00000     0.00000
     0.90000     0.78938   360.00000     0.29524     0.00000     0.00000     0.00000
     1.00000     0.87959   360.00000     0.29530     0.00000     0.00000     0.00000
     1.10000     0.97041   360.00000     0.29537     0.00000     0.00000     0.00000
     1.20000     1.05550   360.00000     0.29543     0.00000     0.00000     0.00000
     1.30000     1.14756   360.00000     0.29550     0.00000     0.00000     0.00000
     1.40000     1.24039   360.00000     0.29559     0.00000     0.00000     0.00000
     1.50000     1.33404   360.00000     0.29568     0.00000     0.00000     0.00000
     1.60000     1.42858   360.00000     0.29578     0.00000     0.00000     0.00000
     1.70000     1.52406   360.00000     0.29588     0.00000     0.00000     0.00000
     1.80000     1.62055   360.00000     0.29599     0.00000     0.00000     0.00000
     1.90000     1.71809   360.00000     0.29610     0.00000     0.00000     0.00000
     2.00000     1.81675   360.00000     0.29622     0.00000     0.00000     0.00000
     2.10000     1.91658   360.00000     0.29635     0.00000     0.00000     0.00000
     2.20000     2.01765   360.00000     0.29648     0.00000     0.00000     0.00000
     2.30000     2.12000   360.00000     0.29662     0.00000     0.00000     0.00000
     2.40000     2.21516   360.00000     0.29673     0.00000     0.00000     0.00000
     2.50000     2.32001   360.00000     0.29688     0.00000     0.00000     0.00000
     2.60000     2.42630   360.00000     0.29704     0.00000     0.00000     0.00000
     2.70000     2.53408   360.00000     0.29719     0.00000     0.00000     0.00000
     2.80000     2.64342   360.00000     0.29736     0.00000     0.00000     0.00000
     2.90000     2.75437   360.00000     0.29753     0.00000     0.00000     0.00000
     3.00000     2.87711   360.00000     0.29773     0.00000     0.00000     0.00000
     3.10000     2.99172   360.00000     0.29791     0.00000     0.00000     0.00000
     3.20000     3.10810   360.00000     0.29810     0.00000     0.00000     0.00000
     3.30000     3.22630   360.00000     0.29829     0.00000     0.00000     0.00000
     3.40000     3.34637   360.00000     0.29848     0.00000     0.00000     0.00000
     3.50000     3.46836   360.00000     0.29868     0.00000     0.00000     0.00000
     3.60000     3.59232   360.00000     0.29889     0.00000     0.00000     0.00000
     3.70000     3.71830   360.00000     0.29909     0.00000     0.00000     0.00000
     3.80000     3.84634   360.00000     0.29931     0.00000     0.00000     0.00000
     3.90000     3.97649   360.00000     0.29952     0.00000     0.00000     0.00000
     4.00000     4.12239   360.00000     0.29978     0.00000     0.00000     0.00000
     4.10000     4.25729   360.00000     0.30001     0.00000     0.00000     0.00000
     4.20000     4.39444   360.00000     0.30024     0.00000     0.00000     0.00000
     4.30000     4.53389   360.00000     0.30047     0.00000     0.00000     0.00000
     4.40000     4.69093   360.00000     0.30075     0.00000     0.00000     0.00000
     4.50000     4.83552   360.00000     0.30099     0.00000     0.00000     0.00000
     4.60000     4.98255   360.00000     0.30123     0.00000     0.00000     0.00000
     4.70000     5.14863   360.00000     0.30153     0.00000     0.00000     0.00000
     4.80000     5.30108   360.00000     0.30177     0.00000     0.00000     0.00000
     4.90000     5.45609   360.00000     0.30203     0.00000     0.00000     0.00000
     5.00000     5.63169   360.00000     0.30233     0.00000     0.00000     0.00000
     5.10000     5.79239   360.00000     0.30259     0.00000     0.00000     0.00000
     5.20000     5.97476   360.00000     0.30290     0.00000     0.00000     0.00000
     5.30000     6.14132   360.00000     0.30316     0.00000     0.00000     0.00000
     5.40000     6.33065   360.00000     0.30348     0.00000     0.00000     0.00000
     5.50000     6.50324   360.00000     0.30374     0.00000     0.00000     0.00000
     5.60000     6.69973   360.00000     0.30406     0.00000     0.00000     0.00000
     5.70000     6.90016   360.00000     0.30439     0.00000     0.00000     0.00000
     5.80000     7.08231   360.00000     0.30466     0.00000     0.00000     0.00000
     5.90000     7.29016   360.00000     0.30499     0.00000     0.00000     0.00000
     6.00000     7.50207   360.00000     0.30531     0.00000     0.00000     0.00000
     6.10000     7.69414   360.00000     0.30559     0.00000     0.00000     0.00000
     6.20000     7.91371   360.00000     0.30592     0.00000     0.00000     0.00000
     6.30000     8.13749   360.00000     0.30625     0.00000     0.00000     0.00000
     6.40000     8.36549   360.00000     0.30658     0.00000     0.00000     0.00000
     6.50000     8.59777   360.00000     0.30692     0.00000     0.00000     0.00000
     6.60000     8.83436   360.00000     0.30725     0.00000     0.00000     0.00000
     6.70000     9.07530   360.00000     0.30759     0.00000     0.00000     0.00000
     6.80000     9.32061   360.00000     0.30792     0.00000     0.00000     0.00000
     6.90000     9.57034   360.00000     0.30825     0.00000     0.00000     0.00000
     7.00000     9.85420   360.00000     0.30864     0.00000     0.00000     0.00000
     7.10000    10.11349   360.00000     0.30897     0.00000     0.00000     0.00000
     7.20000    10.37728   360.00000     0.30930     0.00000     0.00000     0.00000
     7.30000    10.67737   360.00000     0.30969     0.00000     0.00000     0.00000
     7.40000    10.95089   360.00000     0.31001     0.00000     0.00000     0.00000
     7.50000    11.26221   360.00000     0.31039     0.00000     0.00000     0.00000
     7.60000    11.54557   360.00000     0.31072     0.00000     0.00000     0.00000
     7.70000    11.86822   360.00000     0.31110     0.00000     0.00000     0.00000
     7.80000    12.19695   360.00000     0.31147     0.00000     0.00000     0.00000
     7.90000    12.53178   360.00000     0.31184     0.00000     0.00000     0.00000
     8.00000    12.87274   360.00000     0.31220     0.00000     0.00000     0.00000
     8.10000    13.21983   360.00000     0.31257     0.00000     0.00000     0.00000
     8.20000    13.57306   360.00000     0.31293     0.00000     0.00000     0.00000
     8.30000    13.93245   360.00000     0.31328     0.00000     0.00000     0.00000
     8.40000    14.29799   360.00000     0.31363     0.00000     0.00000     0.00000
     8.50000    14.71078   360.00000     0.31403     0.00000     0.00000     0.00000
     8.60000    15.08942   360.00000     0.31437     0.00000     0.00000     0.00000
     8.70000    15.51698   360.00000     0.31475     0.00000     0.00000     0.00000
     8.80000    15.95236   360.00000     0.31513     0.00000     0.00000     0.00000
     8.90000    16.39554   360.00000     0.31550     0.00000     0.00000     0.00000
     9.00000    16.84649   360.00000     0.31586     0.00000     0.00000     0.00000
     9.10000    17.30520   360.00000     0.31621     0.00000     0.00000     0.00000
     9.20000    17.81892   360.00000     0.31660     0.00000     0.00000     0.00000
     9.30000    18.34217   360.00000     0.31698     0.00000     0.00000     0.00000
     9.40000    18.82565   360.00000     0.31731     0.00000     0.00000     0.00000
     9.50000    19.36681   360.00000     0.31767     0.00000     0.00000     0.00000
     9.60000    19.96847   360.00000     0.31806     0.00000     0.00000     0.00000
     9.70000    20.52917   360.00000     0.31840     0.00000     0.00000     0.00000
     9.80000    21.15217   360.00000     0.31876     0.00000     0.00000     0.00000
     9.90000    21.78619   360.00000     0.31911     0.00000     0.00000     0.00000
    10.00000    22.48634   360.00000     0.31948     0.00000     0.00000     0.00000
    10.10000    23.14295   360.00000     0.31980     0.00000     0.00000     0.00000
    10.20000    23.86746   360.00000     0.32014     0.00000     0.00000     0.00000
    10.30000    24.66284   360.00000     0.32049     0.00000     0.00000     0.00000
    10.40000    25.47255   360.00000     0.32082     0.00000     0.00000     0.00000
    10.50000    26.29630   360.00000     0.32113     0.00000     0.00000     0.00000
    10.60000    27.19558   360.00000     0.32145     0.00000     0.00000     0.00000
    10.70000    28.17345   360.00000     0.32177     0.00000     0.00000     0.00000
    10.80000    29.16867   360.00000     0.32206     0.00000     0.00000     0.00000
    10.90000    30.24611   360.00000     0.32235     0.00000     0.00000     0.00000
    11.00000    31.34201   360.00000     0.32260     0.00000     0.00000     0.00000
    11.10000    32.59129   360.00000     0.32287     0.00000     0.00000     0.00000
    11.20000    33.93122   360.00000     0.32311     0.00000     0.00000     0.00000
    11.30000    35.43479   360.00000     0.32334     0.00000     0.00000     0.00000
    11.40000    37.03638   360.00000     0.32355     0.00000     0.00000     0.00000
    11.50000    38.81097   360.00000     0.32372     0.00000     0.00000     0.00000
    11.60000    40.76390   360.00000     0.32387     0.00000     0.00000     0.00000
    11.70000    43.05134   360.00000     0.32398     0.00000     0.00000     0.00000
    11.80000    45.60776   360.00000     0.32404     0.00000     0.00000     0.00000
    11.90000    48.59606   360.00000     0.32405     0.00000     0.00000     0.00000
    12.00000    52.18730   360.00000     0.32400     0.00000     0.00000     0.00000
    12.10000    56.55885   360.00000     0.32387     0.00000     0.00000     0.00000
    12.20000    62.05615   360.00000     0.32366     0.00000     0.00000     0.00000
    12.30000    69.28283   360.00000     0.32340     0.00000     0.00000     0.00000
    12.40000    80.79021   360.00000     0.32311     0.00000     0.00000     0.00000
    12.50000    90.00000   360.00000     0.32305     0.00000     0.00000     0.00000
    12.60000    90.00000   360.00000     0.32307     0.00000     0.00000     0.00000
    12.70000    90.00000   360.00000     0.32310     0.00000     0.00000     0.00000
    12.80000    90.00000   360.00000     0.32312     0.00000     0.00000     0.00000
    12.90000    90.00000   360.00000     0.32314     0.00000     0.00000     0.00000
    13.00000    90.00000   360.00000     0.32316     0.00000     0.00000     0.00000
    13.10000    90.00000   360.00000     0.32319     0.00000     0.00000     0.00000
    13.20000    90.00000   360.00000     0.32321     0.00000     0.00000     0.00000
    13.30000    90.00000   360.00000     0.32323     0.00000     0.00000     0.00000
    13.40000    90.00000   360.00000     0.32325     0.00000     0.00000     0.00000
    13.50000    90.00000   360.00000     0.32328     0.00000     0.00000     0.00000
    13.60000    90.00000   360.00000     0.32330     0.00000     0.00000     0.00000
    13.70000    90.00000   360.00000     0.32332     0.00000     0.00000     0.00000
    13.80000    90.00000   360.00000     0.32334     0.00000     0.00000     0.00000
    13.90000    90.00000   360.00000     0.32337     0.00000     0.00000     0.00000
    14.00000    90.00000   360.00000     0.32339     0.00000     0.00000     0.00000
    14.10000    90.00000   360.00000     0.32341     0.00000     0.00000     0.00000
    14.20000    90.00000   360.00000     0.32343     0.00000     0.00000     0.00000
    14.30000    90.00000   360.00000     0.32346     0.00000     0.00000     0.00000
    14.40000    90.00000   360.00000     0.32348     0.00000     0.00000     0.00000
    14.50000    90.00000   360.00000     0.32350     0.00000     0.00000     0.00000
    14.60000    90.00000   360.00000     0.32352     0.00000     0.00000     0.00000
    14.70000    90.00000   360.00000     0.32355     0.00000     0.00000     0.00000
    14.80000    90.00000   360.00000     0.32357     0.00000     0.00000     0.00000
    14.90000    90.00000   360.00000     0.32359     0.00000     0.00000     0.00000
    15.00000    90.00000   360.00000     0.32361     0.00000     0.00000     0.00000
    15.10000    90.00000   360.00000     0.32364     0.00000     0.00000     0.00000
    15.20000    90.00000   360.00000     0.32366     0.00000     0.00000     0.00000
    15.30000    90.00000   360.00000     0.32368     0.00000     0.00000     0.00000
    15.40000    90.00000   360.00000     0.32370     0.00000     0.00000     0.00000
    15.50000    90.00000   360.00000     0.32373     0.00000     0.00000     0.00000
    15.60000    90.00000   360.00000     0.32375     0.00000     0.00000     0.00000
    15.70000    90.00000   360.00000     0.32377     0.00000     0.00000     0.00000
    15.80000    90.00000   360.00000     0.32379     0.00000     0.00000     0.00000
    15.90000    90.00000   360.00000     0.32382     0.00000     0.00000     0.00000
    16.00000    90.00000   360.00000     0.32384     0.00000     0.00000     0.00000
    16.10000    90.00000   360.00000     0.32386     0.00000     0.00000     0.00000
    16.20000    90.00000   360.00000     0.32388     0.00000     0.00000     0.00000
    16.30000    90.00000   360.00000     0.32391     0.00000     0.00000     0.00000
    16.40000    90.00000   360.00000     0.32393     0.00000     0.00000     0.00000
    16.50000    90.00000   360.00000     0.32395     0.00000     0.00000     0.00000
    16.60000    90.00000   360.00000     0.32397     0.00000     0.00000     0.00000
    16.70000    90.00000   360.00000     0.32400     0.00000     0.00000     0.00000
    16.80000    90.00000   360.00000     0.32402     0.00000     0.00000     0.00000
    16.90000    90.00000   360.00000     0.32404     0.00000     0.00000     0.00000
    17.00000    90.00000   360.00000     0.32406     0.00000     0.00000     0.00000
    17.10000    90.00000   360.00000     0.32409     0.00000     0.00000     0.00000
    17.20000    90.00000   360.00000     0.32411     0.00000     0.00000     0.00000
    17.30000    90.00000   360.00000     0.32413     0.00000     0.00000     0.00000
    17.40000    90.00000   360.00000     0.32415     0.00000     0.00000     0.00000
    17.50000    90.00000   360.00000     0.32418     0.00000     0.00000     0.00000
    17.60000    90.00000   360.00000     0.32420     0.00000     0.00000     0.00000
    17.70000    90.00000   360.00000     0.32422     0.00000     0.00000     0.00000
    17.80000    90.00000   360.00000     0.32424     0.00000     0.00000     0.00000
    17.90000    90.00000   360.00000     0.32427     0.00000     0.00000     0.00000
    18.00000    90.00000   360.00000     0.32429     0.00000     0.00000     0.00000
    18.10000    90.00000   360.00000     0.32431     0.00000     0.00000     0.00000
    18.20000    90.00000   360.00000     0.32433     0.00000     0.00000     0.00000
    18.30000    90.00000   360.00000     0.32436     0.00000     0.00000     0.00000
    18.40000    90.00000   360.00000     0.32438     0.00000     0.00000     0.00000
    18.50000    90.00000   360.00000     0.32440     0.00000     0.00000     0.00000
    18.60000    90.00000   360.00000     0.32443     0.00000     0.00000     0.00000
    18.70000    90.00000   360.00000     0.32445     0.00000     0.00000     0.00000
    18.80000    90.00000   360.00000     0.32447     0.00000     0.00000     0.00000
    18.90000    90.00000   360.00000     0.32449     0.00000     0.00000     0.00000
    19.00000    90.00000   360.00000     0.32452     0.00000     0.00000     0.00000
    19.10000    90.00000   360.00000     0.32454     0.00000     0.00000     0.00000
    19.20000    90.00000   360.00000     0.32456     0.00000     0.00000     0.00000
    19.30000    90.00000   360.00000     0.32458     0.00000     0.00000     0.00000
    19.40000    90.00000   360.00000     0.32461     0.00000     0.00000     0.00000
    19.50000    90.00000   360.00000     0.32463     0.00000     0.00000     0.00000
    19.60000    90.00000   360.00000     0.32465     0.00000     0.00000     0.00000
    19.70000    90.00000   360.00000     0.32467     0.00000     0.00000     0.00000
    19.80000    90.00000   360.00000     0.32470     0.00000     0.00000     0.00000
    19.90000    90.00000   360.00000     0.32472     0.00000     0.00000     0.00000
    20.00000    90.00000   360.00000     0.32474     0.00000     0.00000     0.00000
    20.10000    90.00000   360.00000     0.32476     0.00000     0.00000     0.00000
    20.20000    90.00000   360.00000     0.32479     0.00000     0.00000     0.00000
    20.30000    90.00000   360.00000     0.32481     0.00000     0.00000     0.00000
    20.40000    90.00000   360.00000     0.32483     0.00000     0.00000     0.00000
    20.50000    90.00000   360.00000     0.32486     0.00000     0.00000     0.00000
    20.60000    90.00000   360.00000     0.32488     0.00000     0.00000     0.00000
    20.70000    90.00000   360.00000     0.32490     0.00000     0.00000     0.00000
    20.80000    90.00000   360.00000     0.32492     0.00000     0.00000     0.00000
    20.90000    90.00000   360.00000     0.32495     0.00000     0.00000     0.00000
    21.00000    90.00000   360.00000     0.32497     0.00000     0.00000     0.00000
    21.10000    90.00000   360.00000     0.32499     0.00000     0.00000     0.00000
    21.20000    90.00000   360.00000     0.32501     0.00000     0.00000     0.00000
    21.30000    90.00000   360.00000     0.32504     0.00000     0.00000     0.00000
    21.40000    90.00000   360.00000     0.32506     0.00000     0.00000     0.00000
    21.50000    90.00000   360.00000     0.32508     0.00000     0.00000     0.00000
    21.60000    90.00000   360.00000     0.32510     0.00000     0.00000     0.00000
    21.70000    90.00000   360.00000     0.32513     0.00000     0.00000     0.00000
    21.80000    90.00000   360.00000     0.32515     0.00000     0.00000     0.00000
    21.90000    90.00000   360.00000     0.32517     0.00000     0.00000     0.00000
    22.00000    90.00000   360.00000     0.32520     0.00000     0.00000     0.00000
    22.10000    90.00000   360.00000     0.32522     0.00000     0.00000     0.00000
    22.20000    90.00000   360.00000     0.32524     0.00000     0.00000     0.00000
    22.30000    90.00000   360.00000     0.32526     0.00000     0.00000     0.00000
    22.40000    90.00000   360.00000     0.32529     0.00000     0.00000     0.00000
    22.50000    90.00000   360.00000     0.32531     0.00000     0.00000     0.00000
    22.60000    90.00000   360.00000     0.32533     0.00000     0.00000     0.00000
    22.70000    90.00000   360.00000     0.32535     0.00000     0.00000     0.00000
    22.80000    90.00000   360.00000     0.32538     0.00000     0.00000     0.00000
    22.90000    90.00000   360.00000     0.32540     0.00000     0.00000     0.00000
    23.00000    90.00000   360.00000     0.32542     0.00000     0.00000     0.00000
    23.10000    90.00000   360.00000     0.32545     0.00000     0.00000     0.00000
    23.20000    90.00000   360.00000     0.32547     0.00000     0.00000     0.00000
    23.30000    90.00000   360.00000     0.32549     0.00000     0.00000     0.00000
