 # applied field (T), magnetization (2 f.u.), magnetization (T)
 # T=0 1st order approx.
 # K1(0) (K, MJ/m^3)   88.0582362464699        7.17932127526250     
 # K2(0) (K, MJ/m^3)  -11.8115230089574      -0.962984520767755     
 # from A20
 # K1(0) from A20 (K, MJ/m^3)   74.5593528076614        3.03938376862110     
  0.000000000000000E+000  3.982871615193904E-015  1.370483860783643E-016
  0.100000000000000       0.307422827461681       1.057824766094541E-002
  0.200000000000000       0.614835300153612       2.115613902005147E-002
  0.300000000000000       0.922227063529488       3.173331778316742E-002
  0.400000000000000        1.17845559289181       4.054999826123747E-002
  0.500000000000000        1.48578248643655       5.112494488972266E-002
  0.600000000000000        1.79305933332937       6.169816944088834E-002
  0.700000000000000        2.10027578194120       7.226931572096444E-002
  0.800000000000000        2.40742148194038       8.283802758082370E-002
  0.900000000000000        2.71448608451291       9.340394892356098E-002
   1.00000000000000        3.02145924258159       0.103966723712033     
   1.10000000000000        3.32833061102386       0.114525995976355     
   1.20000000000000        3.58406339029197       0.123325617970780     
   1.30000000000000        3.89072125116966       0.133877543559143     
   1.40000000000000        4.19724802106860       0.144424958380200     
   1.50000000000000        4.50363336433986       0.154967506790048     
   1.60000000000000        4.80986694831886       0.165504833247475     
   1.70000000000000        5.11593844353295       0.176036582321099     
   1.80000000000000        5.42183752390657       0.186562398696433     
   1.90000000000000        5.72755386696422       0.197081927182864     
   2.00000000000000        6.03307715403059       0.207594812720542     
   2.10000000000000        6.33839707042815       0.218100700387180     
   2.20000000000000        6.64350330567200       0.228599235404754     
   2.30000000000000        6.94838555366150       0.239090063146103     
   2.40000000000000        7.25303351286909       0.249572829141420     
   2.50000000000000        7.50681165202295       0.258305193062046     
   2.60000000000000        7.81100327499727       0.268772256782642     
   2.70000000000000        8.11493144510422       0.279230255237328     
   2.80000000000000        8.41858588001470       0.289678834616905     
   2.90000000000000        8.77239876691666       0.301853338293765     
   3.00000000000000        9.07542494038995       0.312280299548452     
   3.10000000000000        9.37814485758392       0.322696722695747     
   3.20000000000000        9.68054825994131       0.333102254744429     
   3.30000000000000        9.98262489501936       0.343496542913673     
   3.40000000000000        10.2843645166418       0.353879234638282     
   3.50000000000000        10.5857568850470       0.364249977573779     
   3.60000000000000        10.8867917670316       0.374608419601360     
   3.70000000000000        11.1874589360904       0.384954208832693     
   3.80000000000000        11.4877481725514       0.395286993614580     
   3.90000000000000        11.8375043346284       0.407321907657695     
   4.00000000000000        12.1369398020443       0.417625314723946     
   4.10000000000000        12.4359650243463       0.427914605485136     
   4.20000000000000        12.7345698117289       0.438189429315746     
   4.30000000000000        13.0327439818514       0.448449435847130     
   4.40000000000000        13.3799666362148       0.460397173305906     
   4.50000000000000        13.6771730351675       0.470623879372265     
   4.60000000000000        13.9739166266462       0.480834660492124     
   4.70000000000000        14.3194300363156       0.492723583796353     
   4.80000000000000        14.6151362071469       0.502898667851598     
   4.90000000000000        14.9103474596204       0.513056722042780     
   5.00000000000000        15.2540330404472       0.524882750778186     
   5.10000000000000        15.5481373981586       0.535002717339298     
   5.20000000000000        15.8905042470204       0.546783369244884     
   5.30000000000000        16.1834542815440       0.556863616190307     
   5.40000000000000        16.5244471325938       0.568596989599169     
   5.50000000000000        16.8161955020020       0.578635887919632     
   5.60000000000000        17.1557591915763       0.590320084680943     
   5.70000000000000        17.4945306136901       0.601977019961773     
   5.80000000000000        17.7843381101763       0.611949133929829     
   5.90000000000000        18.1215957114632       0.623553979482145     
   6.00000000000000        18.4580155337863       0.635129997528588     
   6.10000000000000        18.7935816819861       0.646676641125604     
   6.20000000000000        19.1282782778407       0.658193363912454     
   6.30000000000000        19.4145306864057       0.668043149292232     
   6.40000000000000        19.7475701265681       0.679502850277969     
   6.50000000000000        20.0796947374740       0.690931072500329     
   6.60000000000000        20.4108887072220       0.702327271880619     
   6.70000000000000        20.7411362413967       0.713690904941836     
   6.80000000000000        21.1173102356253       0.726634841823208     
   6.90000000000000        21.4454768211972       0.737926870606138     
   7.00000000000000        21.7726474520097       0.749184629142478     
   7.10000000000000        22.0988064075061       0.760407576496658     
   7.20000000000000        22.4702289401335       0.773188018240132     
   7.30000000000000        22.7941674208441       0.784334560298055     
   7.40000000000000        23.1630116986174       0.797026285733099     
   7.50000000000000        23.4846578069843       0.808093948539980     
   7.60000000000000        23.8508417921646       0.820694134793855     
   7.70000000000000        24.2155736319392       0.833244353535984     
   7.80000000000000        24.5335656885105       0.844186282462988     
   7.90000000000000        24.8955118734909       0.856640648380673     
   8.00000000000000        25.2559392033606       0.869042751342954     
   8.10000000000000        25.6148245447386       0.881391795343117     
   8.20000000000000        26.0166386933782       0.895217995606373     
   8.30000000000000        26.3721709803892       0.907451662879939     
   8.40000000000000        26.7260892304534       0.919629792044317     
   8.50000000000000        27.1222304355484       0.933260789491062     
   8.60000000000000        27.4726429466801       0.945318288138283     
   8.70000000000000        27.8647827239781       0.958811598691105     
   8.80000000000000        28.2547572924142       0.972230405617215     
   8.90000000000000        28.6425342184717       0.985573592897437     
   9.00000000000000        29.0280811420350       0.998840047038276     
   9.10000000000000        29.4537616592306        1.01348747570359     
   9.20000000000000        29.8344952610396        1.02658830613324     
   9.30000000000000        30.2547488532697        1.04104899734384     
   9.40000000000000        30.6720826611713        1.05540922040769     
   9.50000000000000        31.0864529286996        1.06966746970374     
   9.60000000000000        31.5387420622178        1.08523048598400     
   9.70000000000000        31.9467475530434        1.09926972687127     
   9.80000000000000        32.3919311706349        1.11458824632008     
   9.90000000000000        32.8333095634851        1.12977583011244     
   10.0000000000000        33.3103688315726        1.14619117287812     
   10.1000000000000        33.7827589515826        1.16244585286825     
   10.2000000000000        34.2504066620012        1.17853734919507     
   10.3000000000000        34.7515559471854        1.19578161598409     
   10.4000000000000        35.2469631558492        1.21282830112954     
   10.5000000000000        35.7365370636383        1.22967426565238     
   10.6000000000000        36.2940057306458        1.24885645089059     
   10.7000000000000        36.8070994622640        1.26651171940513     
   10.8000000000000        37.3847410241574        1.28638804268085     
   10.9000000000000        37.9529485141628        1.30593974481601     
   11.0000000000000        38.5806621158485        1.32753901899354     
   11.1000000000000        39.1960082888275        1.34871273686196     
   11.2000000000000        39.8318602119162        1.37059204613011     
   11.3000000000000        40.5502022426401        1.39530979389466     
   11.4000000000000        41.2490121176231        1.41935545109754     
   11.5000000000000        42.0188881661445        1.44584645560990     
   11.6000000000000        42.8499372108246        1.47444238872783     
   11.7000000000000        43.7307311528513        1.50475001595886     
   11.8000000000000        44.6744154279923        1.53722166440021     
   11.9000000000000        45.6854306476788        1.57201013300917     
   12.0000000000000        46.8012605119676        1.61040521495343     
   12.1000000000000        47.9847237290360        1.65112752276360     
   12.2000000000000        49.2220847212832        1.69370442289186     
   12.3000000000000        50.4648580249824        1.73646755763201     
   12.4000000000000        51.6606532362312        1.77761420246905     
   12.5000000000000        51.7069888745454        1.77920858588443     
   12.6000000000000        51.7070337784887        1.77921013100402     
   12.7000000000000        51.7070786877504        1.77921167630661     
   12.8000000000000        51.7071236023317        1.77921322179225     
   12.9000000000000        51.7071685222337        1.77921476746097     
   13.0000000000000        51.7072134474574        1.77921631331281     
   13.1000000000000        51.7072583780039        1.77921785934780     
   13.2000000000000        51.7073033138743        1.77921940556598     
   13.3000000000000        51.7073482550697        1.77922095196740     
   13.4000000000000        51.7073932015910        1.77922249855207     
   13.5000000000000        51.7074381534395        1.77922404532005     
   13.6000000000000        51.7074831106161        1.77922559227137     
   13.7000000000000        51.7075280731220        1.77922713940607     
   13.8000000000000        51.7075730409582        1.77922868672418     
   13.9000000000000        51.7076180141258        1.77923023422574     
   14.0000000000000        51.7076629926259        1.77923178191079     
   14.1000000000000        51.7077079764595        1.77923332977936     
   14.2000000000000        51.7077529656277        1.77923487783149     
   14.3000000000000        51.7077979601317        1.77923642606722     
   14.4000000000000        51.7078429599724        1.77923797448659     
   14.5000000000000        51.7078879651509        1.77923952308962     
   14.6000000000000        51.7079329756683        1.77924107187637     
   14.7000000000000        51.7079779915258        1.77924262084686     
   14.8000000000000        51.7080230127243        1.77924417000114     
   14.9000000000000        51.7080680392650        1.77924571933924     
   15.0000000000000        51.7081130711488        1.77924726886119     
   15.1000000000000        51.7081581083770        1.77924881856704     
   15.2000000000000        51.7082031509505        1.77925036845682     
   15.3000000000000        51.7082481988705        1.77925191853057     
   15.4000000000000        51.7082932521380        1.77925346878832     
   15.5000000000000        51.7083383107541        1.77925501923011     
   15.6000000000000        51.7083833747199        1.77925656985599     
   15.7000000000000        51.7084284440364        1.77925812066598     
   15.8000000000000        51.7084735187047        1.77925967166012     
   15.9000000000000        51.7085185987259        1.77926122283845     
   16.0000000000000        51.7085636841012        1.77926277420101     
   16.1000000000000        51.7086087748314        1.77926432574784     
   16.2000000000000        51.7086538709178        1.77926587747897     
   16.3000000000000        51.7086989723614        1.77926742939443     
   16.4000000000000        51.7087440791633        1.77926898149427     
   16.5000000000000        51.7087891913245        1.77927053377852     
   16.6000000000000        51.7088343088462        1.77927208624723     
   16.7000000000000        51.7088794317294        1.77927363890042     
   16.8000000000000        51.7089245599751        1.77927519173813     
   16.9000000000000        51.7089696935846        1.77927674476040     
   17.0000000000000        51.7090148325588        1.77927829796727     
   17.1000000000000        51.7090599768988        1.77927985135878     
   17.2000000000000        51.7091051266057        1.77928140493496     
   17.3000000000000        51.7091502816805        1.77928295869585     
   17.4000000000000        51.7091954421245        1.77928451264148     
   17.5000000000000        51.7092406079385        1.77928606677190     
   17.6000000000000        51.7092857791238        1.77928762108713     
   17.7000000000000        51.7093309556813        1.77928917558723     
   17.8000000000000        51.7093761376122        1.77929073027222     
   17.9000000000000        51.7094213249176        1.77929228514214     
   18.0000000000000        51.7094665175985        1.77929384019702     
   18.1000000000000        51.7095117156559        1.77929539543692     
   18.2000000000000        51.7095569190911        1.77929695086186     
   18.3000000000000        51.7096021279050        1.77929850647187     
   18.4000000000000        51.7096473420987        1.77930006226701     
   18.5000000000000        51.7096925616734        1.77930161824730     
   18.6000000000000        51.7097377866300        1.77930317441278     
   18.7000000000000        51.7097830169697        1.77930473076348     
   18.8000000000000        51.7098282526936        1.77930628729946     
   18.9000000000000        51.7098734938027        1.77930784402073     
   19.0000000000000        51.7099187402981        1.77930940092735     
   19.1000000000000        51.7099639921809        1.77931095801934     
   19.2000000000000        51.7100092494521        1.77931251529675     
   19.3000000000000        51.7100545121129        1.77931407275961     
   19.4000000000000        51.7100997801643        1.77931563040796     
   19.5000000000000        51.7101450536074        1.77931718824183     
   19.6000000000000        51.7101903324433        1.77931874626126     
   19.7000000000000        51.7102356166731        1.77932030446630     
   19.8000000000000        51.7102809062978        1.77932186285697     
   19.9000000000000        51.7103262013185        1.77932342143332     
   20.0000000000000        51.7103715017363        1.77932498019537     
   20.1000000000000        51.7104168075524        1.77932653914318     
   20.2000000000000        51.7104621187676        1.77932809827677     
   20.3000000000000        51.7105074353833        1.77932965759618     
   20.4000000000000        51.7105527574003        1.77933121710146     
   20.5000000000000        51.7105980848199        1.77933277679263     
   20.6000000000000        51.7106434176430        1.77933433666974     
   20.7000000000000        51.7106887558708        1.77933589673281     
   20.8000000000000        51.7107340995044        1.77933745698190     
   20.9000000000000        51.7107794485447        1.77933901741703     
   21.0000000000000        51.7108248029930        1.77934057803825     
   21.1000000000000        51.7108701628503        1.77934213884558     
   21.2000000000000        51.7109155281177        1.77934369983908     
   21.3000000000000        51.7109608987962        1.77934526101876     
   21.4000000000000        51.7110062748869        1.77934682238468     
   21.5000000000000        51.7110516563910        1.77934838393687     
   21.6000000000000        51.7110970433095        1.77934994567537     
   21.7000000000000        51.7111424356434        1.77935150760021     
   21.8000000000000        51.7111878333939        1.77935306971143     
   21.9000000000000        51.7112332365621        1.77935463200906     
   22.0000000000000        51.7112786451489        1.77935619449316     
   22.1000000000000        51.7113240591556        1.77935775716374     
   22.2000000000000        51.7113694785832        1.77935932002086     
   22.3000000000000        51.7114149034327        1.77936088306454     
   22.4000000000000        51.7114603337053        1.77936244629483     
   22.5000000000000        51.7115057694021        1.77936400971176     
   22.6000000000000        51.7115512105241        1.77936557331537     
   22.7000000000000        51.7115966570723        1.77936713710569     
   22.8000000000000        51.7116421090480        1.77936870108277     
   22.9000000000000        51.7116875664521        1.77937026524664     
   23.0000000000000        51.7117330292858        1.77937182959733     
   23.1000000000000        51.7117784975501        1.77937339413489     
   23.2000000000000        51.7118239712462        1.77937495885936     
   23.3000000000000        51.7118694503750        1.77937652377076     
   23.4000000000000        51.7119149349378        1.77937808886914     
   23.5000000000000        51.7119604249355        1.77937965415454     
   23.6000000000000        51.7120059203692        1.77938121962698     
   23.7000000000000        51.7120514212401        1.77938278528652     
   23.8000000000000        51.7120969275492        1.77938435113318     
   23.9000000000000        51.7121424392977        1.77938591716700     
   24.0000000000000        51.7121879564865        1.77938748338803     
   24.1000000000000        51.7122334791168        1.77938904979629     
   24.2000000000000        51.7122790071897        1.77939061639183     
   24.3000000000000        51.7123245407062        1.77939218317469     
   24.4000000000000        51.7123700796674        1.77939375014489     
   24.5000000000000        51.7124156240745        1.77939531730248     
   24.6000000000000        51.7124611739284        1.77939688464749     
   24.7000000000000        51.7125067292303        1.77939845217997     
   24.8000000000000        51.7125522899813        1.77940001989995     
   24.9000000000000        51.7125978561825        1.77940158780746     
   25.0000000000000        51.7126434278349        1.77940315590255     
   25.1000000000000        51.7126890049396        1.77940472418524     
   25.2000000000000        51.7127345874977        1.77940629265559     
   25.3000000000000        51.7127801755104        1.77940786131362     
   25.4000000000000        51.7128257689786        1.77940943015938     
   25.5000000000000        51.7128713679035        1.77941099919290     
   25.6000000000000        51.7129169722861        1.77941256841422     
   25.7000000000000        51.7129625821276        1.77941413782337     
   25.8000000000000        51.7130081974290        1.77941570742039     
   25.9000000000000        51.7130538181914        1.77941727720533     
   26.0000000000000        51.7130994444159        1.77941884717821     
   26.1000000000000        51.7131450761036        1.77942041733908     
   26.2000000000000        51.7131907132556        1.77942198768797     
   26.3000000000000        51.7132363558729        1.77942355822492     
   26.4000000000000        51.7132820039567        1.77942512894997     
   26.5000000000000        51.7133276575080        1.77942669986315     
   26.6000000000000        51.7133733165279        1.77942827096451     
   26.7000000000000        51.7134189810176        1.77942984225407     
   26.8000000000000        51.7134646509780        1.77943141373188     
