 # applied field (T), magnetization (2 f.u.), magnetization (T)
 # T=0 1st order approx.
 # K1(0) (K, MJ/m^3)   185.921631186409        14.8271722701528     
 # K2(0) (K, MJ/m^3)  -6.59537346737270      -0.525978273548400     
 # from A20
 # K1(0) from A20 (K, MJ/m^3)   713.536246037646        28.4521084864806     
  0.000000000000000E+000  2.301247519665569E-015  7.745615920797187E-017
  0.100000000000000       0.177568914710959       5.976673960842590E-003
  0.200000000000000       0.390552685753013       1.314535300886825E-002
  0.300000000000000       0.568106162199964       1.912150734345391E-002
  0.400000000000000       0.745645601775069       2.509718922030909E-002
  0.500000000000000       0.958575495399679       3.226405484418649E-002
  0.600000000000000        1.13606862380751       3.823817796427387E-002
  0.700000000000000        1.31353368176787       4.421135627984569E-002
  0.800000000000000        1.52635583320466       5.137459548110569E-002
  0.900000000000000        1.70374371796798       5.734517627538289E-002
   1.00000000000000        1.88108950530000       6.331434014022799E-002
   1.10000000000000        2.09375007507020       7.047214077167532E-002
   1.20000000000000        2.27098784529558       7.643766896059341E-002
   1.30000000000000        2.48350612419015       8.359068031812625E-002
   1.40000000000000        2.66061468754800       8.955185961905365E-002
   1.50000000000000        2.83765750759131       9.551082610949703E-002
   1.60000000000000        3.04992344528072       0.102655344082292     
   1.70000000000000        3.22680626154410       0.108608925111960     
   1.80000000000000        3.40360934154111       0.114559822351687     
   1.90000000000000        3.61556922912149       0.121694039187482     
   2.00000000000000        3.79218154599968       0.127638515658312     
   2.10000000000000        3.96870015238761       0.133579837990096     
   2.20000000000000        4.18030035281052       0.140701948355163     
   2.30000000000000        4.35659748154097       0.146635816117827     
   2.40000000000000        4.53278694756929       0.152566060133230     
   2.50000000000000        4.74397390824170       0.159674261536470     
   2.60000000000000        4.91991123409208       0.165596018933377     
   2.70000000000000        5.13078309544177       0.172693614618154     
   2.80000000000000        5.30644723568823       0.178606177042573     
   2.90000000000000        5.48198022844435       0.184514325260869     
   3.00000000000000        5.69234870859203       0.191594977972675     
   3.10000000000000        5.86757795733857       0.197492902673438     
   3.20000000000000        6.04266218177612       0.203385946097472     
   3.30000000000000        6.25247401739312       0.210447863081364     
   3.40000000000000        6.42722401077833       0.216329656844777     
   3.50000000000000        6.63662234689410       0.223377656124065     
   3.60000000000000        6.81101719563175       0.229247496310069     
   3.70000000000000        6.98524368241265       0.235111669712984     
   3.80000000000000        7.19399579708072       0.242137918254505     
   3.90000000000000        7.36783678885147       0.247989116537350     
   4.00000000000000        7.54149564082273       0.253834184297863     
   4.10000000000000        7.74954865045181       0.260836902128003     
   4.20000000000000        7.92279174766085       0.266667976275584     
   4.30000000000000        8.13033355910881       0.273653488026254     
   4.40000000000000        8.30314015534739       0.279469870278081     
   4.50000000000000        8.47574146096659       0.285279342789533     
   4.60000000000000        8.68249530724597       0.292238332944839     
   4.70000000000000        8.85463002120426       0.298032100758008     
   4.80000000000000        9.06081175707724       0.304971834629779     
   4.90000000000000        9.23245925634197       0.310749203607729     
   5.00000000000000        9.40387845165055       0.316518888254713     
   5.10000000000000        9.60918388968422       0.323429127400526     
   5.20000000000000        9.78008596889160       0.329181406780705     
   5.30000000000000        9.98475876731621       0.336070352330822     
   5.40000000000000        10.1551232444334       0.341804536919921     
   5.50000000000000        10.3591388631474       0.348671362895392     
   5.60000000000000        10.5289453119740       0.354386765181524     
   5.70000000000000        10.6984913306721       0.360093401823228     
   5.80000000000000        10.9015073403540       0.366926582623344     
   5.90000000000000        11.0704657298164       0.372613440643564     
   6.00000000000000        11.2727646385735       0.379422485020748     
   6.10000000000000        11.4411151290435       0.385088882173227     
   6.20000000000000        11.6426726607977       0.391872973035122     
   6.30000000000000        11.8103950501803       0.397518229350988     
   6.40000000000000        12.0111870113511       0.404276552381962     
   6.50000000000000        12.1782611674807       0.409899990246042     
   6.60000000000000        12.3450339844193       0.415513285534781     
   6.70000000000000        12.5446693126017       0.422232678225522     
   6.80000000000000        12.7107647411379       0.427823173748703     
   6.90000000000000        12.9095754795682       0.434514812121593     
   7.00000000000000        13.0749735687726       0.440081836364153     
   7.10000000000000        13.2729358297256       0.446744916398139     
   7.20000000000000        13.4376167063883       0.452287800460930     
   7.30000000000000        13.6347066966787       0.458921521317022     
   7.40000000000000        13.7986505675517       0.464439598992279     
   7.50000000000000        13.9948445912189       0.471043163103901     
   7.60000000000000        14.1580317452527       0.476535770950522     
   7.70000000000000        14.3533062062380       0.483108384113632     
   7.80000000000000        14.5157170168118       0.488574861532251     
   7.90000000000000        14.7100484216285       0.495115732995212     
   8.00000000000000        14.8716633487752       0.500555422303072     
   8.10000000000000        15.0650283091717       0.507063764856281     
   8.20000000000000        15.2258279017960       0.512476011361908     
   8.30000000000000        15.4182031374110       0.518951041427177     
   8.40000000000000        15.6100288276881       0.525407574711542     
   8.50000000000000        15.7695303765130       0.530776131224532     
   8.60000000000000        15.9603305832321       0.537198148440088     
   8.70000000000000        16.1189677031146       0.542537609714421     
   8.80000000000000        16.3087194324540       0.548924336927422     
   8.90000000000000        16.4664730051557       0.554234059475038     
   9.00000000000000        16.6551533805389       0.560584726698017     
   9.10000000000000        16.8432398646564       0.566915404530008     
   9.20000000000000        16.9995906514172       0.572177911638932     
   9.30000000000000        17.1865706650851       0.578471347518215     
   9.40000000000000        17.3419896925622       0.583702493161325     
   9.50000000000000        17.5278406694328       0.589957927542210     
   9.60000000000000        17.7130664285921       0.596192318136118     
   9.70000000000000        17.8670086800065       0.601373757956258     
   9.80000000000000        18.0510707783022       0.607568981663359     
   9.90000000000000        18.2344888595345       0.613742528828603     
   10.0000000000000        18.3869099329791       0.618872768331516     
   10.1000000000000        18.5691300409120       0.625005993710505     
   10.2000000000000        18.7506875049421       0.631116915599235     
   10.3000000000000        18.9015434062860       0.636194474015748     
   10.4000000000000        19.0818689057339       0.642263930028250     
   10.5000000000000        19.2615133121308       0.648310461582893     
   10.6000000000000        19.4107604672707       0.653333872281250     
   10.7000000000000        19.5891392484354       0.659337804998240     
   10.8000000000000        19.7668186702487       0.665318198444119     
   10.9000000000000        19.9437923308429       0.671274837142677     
   11.0000000000000        20.0907944133064       0.676222682433502     
   11.1000000000000        20.2664574516371       0.682135207769272     
   11.2000000000000        20.4413967179780       0.688023372145173     
   11.3000000000000        20.6156059022739       0.693886963175257     
   11.4000000000000        20.7890787189568       0.699725769297769     
   11.5000000000000        20.9331392636453       0.704574607325677     
   11.6000000000000        21.1052456463331       0.710367421555463     
   11.7000000000000        21.2765979861152       0.716134855956759     
   11.8000000000000        21.4471900933740       0.721876702197350     
   11.9000000000000        21.6170158040543       0.727592752805400     
   12.0000000000000        21.7860689798844       0.733282801176909     
   12.1000000000000        21.9264178818422       0.738006711491557     
   12.2000000000000        22.0940386977388       0.743648549013036     
   12.3000000000000        22.2608697279794       0.749263803664575     
   12.4000000000000        22.4269049351966       0.754852272238445     
   12.5000000000000        22.5921383088726       0.760413752430621     
   12.6000000000000        22.7565638655582       0.765948042848173     
   12.7000000000000        22.9201756490925       0.771454943016641     
   12.8000000000000        23.0829677308214       0.776934253387404     
   12.9000000000000        23.2449342098165       0.782385775345032     
   13.0000000000000        23.4060692130928       0.787809311214637     
   13.1000000000000        23.5663668958272       0.793204664269205     
   13.2000000000000        23.7258214415758       0.798571638736919     
   13.3000000000000        23.8844270624912       0.803910039808480     
   13.4000000000000        24.0421779995399       0.809219673644402     
   13.5000000000000        24.2250698702314       0.815375509439145     
   13.6000000000000        24.3809495760431       0.820622160747823     
   13.7000000000000        24.5359565542464       0.825839437498568     
   13.8000000000000        24.6900851681671       0.831027149970316     
   13.9000000000000        24.8433298110609       0.836185109449388     
   14.0000000000000        24.9956849063281       0.841313128236727     
   14.1000000000000        25.1722390637877       0.847255647158382     
   14.2000000000000        25.3226480254256       0.852318162328683     
   14.3000000000000        25.4721499819985       0.857350149218951     
   14.4000000000000        25.6453541952871       0.863179914598522     
   14.5000000000000        25.7928725306773       0.868145136103133     
   14.6000000000000        25.9394667146256       0.873079252209217     
   14.7000000000000        26.1092576443655       0.878794132148733     
   14.8000000000000        26.2538314005956       0.883660244022471     
   14.9000000000000        26.3974641768322       0.888494684076657     
   15.0000000000000        26.5637796565830       0.894092586157265     
   15.1000000000000        26.7053558941972       0.898857806546205     
   15.2000000000000        26.8692583089547       0.904374488877652     
   15.3000000000000        27.0318498078019       0.909847047962648     
   15.4000000000000        27.1702149066304       0.914504186767625     
   15.5000000000000        27.3303501932669       0.919894073839977     
   15.6000000000000        27.4665977311190       0.924479939068897     
   15.7000000000000        27.6242492642115       0.929786227133194     
   15.8000000000000        27.7805522378776       0.935047124932973     
   15.9000000000000        27.9354988473943       0.940262369774261     
   16.0000000000000        28.0890813521078       0.945431701119537     
   16.1000000000000        28.2196810388055       0.949827469084052     
   16.2000000000000        28.3707096812067       0.954910841676887     
   16.3000000000000        28.5203524598914       0.959947568404921     
   16.4000000000000        28.6686018855540       0.964937397190606     
   16.5000000000000        28.8154505351217       0.969880078185671     
   16.6000000000000        28.9608910521962       0.974775363786002     
   16.7000000000000        29.1049161474957       0.979623008646507     
   16.8000000000000        29.2677262344418       0.985102925042896     
   16.9000000000000        29.4086942584608       0.989847673975089     
   17.0000000000000        29.5482243928268       0.994544025936105     
   17.1000000000000        29.7058707916364       0.999850141188990     
   17.2000000000000        29.8422964335362        1.00444200110355     
   17.3000000000000        29.9772623984820        1.00898473072267     
   17.4000000000000        30.1296668461393        1.01411441062927     
   17.5000000000000        30.2801463573258        1.01917930037989     
   17.6000000000000        30.4102692356314        1.02355901976797     
   17.7000000000000        30.5571127035965        1.02850152635892     
   17.8000000000000        30.7020031032409        1.03337829592267     
   17.9000000000000        30.8449308877035        1.03818900712778     
   18.0000000000000        30.9858866345326        1.04293334283020     
   18.1000000000000        31.1248610465033        1.04761099010085     
   18.2000000000000        31.2618449524308        1.05222164025290     
   18.3000000000000        31.3968293079793        1.05676498886907     
   18.4000000000000        31.5462469681617        1.06179413848321     
   18.5000000000000        31.6769530217615        1.06619348658052     
   18.6000000000000        31.8215358652517        1.07105990431630     
   18.7000000000000        31.9635416116186        1.07583958125459     
   18.8000000000000        32.0876293920488        1.08001616929852     
   18.9000000000000        32.2247347938882        1.08463090880064     
   19.0000000000000        32.3739782656162        1.08965419552148     
   19.1000000000000        32.5055586811336        1.09408297318485     
   19.2000000000000        32.6345045931638        1.09842307784811     
   19.3000000000000        32.7746421567951        1.10313987486663     
   19.4000000000000        32.9114996964197        1.10774627173937     
   19.5000000000000        33.0450629854782        1.11224178962402     
   19.6000000000000        33.1753181332088        1.11662596098066     
   19.7000000000000        33.3147330169559        1.12131843379778     
   19.8000000000000        33.4501114382106        1.12587504600938     
   19.9000000000000        33.5814363232284        1.13029522294167     
   20.0000000000000        33.7086911024221        1.13457840688992     
   20.1000000000000        33.8428282135322        1.13909323866923     
   20.2000000000000        33.9720826034314        1.14344372618385     
   20.3000000000000        34.1065525669933        1.14796976122239     
   20.4000000000000        34.2352458343617        1.15230136228707     
   20.5000000000000        34.3673311437897        1.15674713383866     
   20.6000000000000        34.5013374724443        1.16125756369831     
   20.7000000000000        34.6275605226161        1.16550602136584     
   20.8000000000000        34.7535681464754        1.16974722814246     
   20.9000000000000        34.8846259336817        1.17415841500721     
   21.0000000000000        35.0106495199152        1.17840015905075     
   21.1000000000000        35.1406864099756        1.18277698421769     
   21.2000000000000        35.2677021822186        1.18705212359001     
   21.3000000000000        35.3944119828398        1.19131696446708     
   21.4000000000000        35.5212425579026        1.19558587041073     
   21.5000000000000        35.5697659370268        1.19721908654530     
   21.6000000000000        35.5700227587314        1.19722773073619     
   21.7000000000000        35.5702795588091        1.19723637419915     
   21.8000000000000        35.5705363372675        1.19724501693444     
   21.9000000000000        35.5707930941144        1.19725365894233     
   22.0000000000000        35.5710498293576        1.19726230022306     
   22.1000000000000        35.5713065430047        1.19727094077692     
   22.2000000000000        35.5715632350636        1.19727958060415     
   22.3000000000000        35.5718199055419        1.19728821970501     
   22.4000000000000        35.5720765544473        1.19729685807976     
   22.5000000000000        35.5723331817877        1.19730549572867     
   22.6000000000000        35.5725897875707        1.19731413265200     
   22.7000000000000        35.5728463718041        1.19732276885000     
   22.8000000000000        35.5731029344957        1.19733140432294     
   22.9000000000000        35.5733594756530        1.19734003907108     
   23.0000000000000        35.5736159952841        1.19734867309467     
   23.1000000000000        35.5738724933964        1.19735730639398     
   23.2000000000000        35.5741289699978        1.19736593896927     
   23.3000000000000        35.5743854250960        1.19737457082080     
   23.4000000000000        35.5746418586988        1.19738320194883     
   23.5000000000000        35.5748982708139        1.19739183235362     
   23.6000000000000        35.5751546614491        1.19740046203542     
   23.7000000000000        35.5754110306120        1.19740909099451     
   23.8000000000000        35.5756673783105        1.19741771923114     
   23.9000000000000        35.5759237045522        1.19742634674557     
   24.0000000000000        35.5761800093450        1.19743497353807     
   24.1000000000000        35.5764362926965        1.19744359960889     
   24.2000000000000        35.5766925546145        1.19745222495829     
   24.3000000000000        35.5769487951068        1.19746084958654     
   24.4000000000000        35.5772050141811        1.19746947349390     
   24.5000000000000        35.5774612118452        1.19747809668062     
   24.6000000000000        35.5777173881067        1.19748671914697     
   24.7000000000000        35.5779735429735        1.19749534089321     
   24.8000000000000        35.5782296764533        1.19750396191959     
   24.9000000000000        35.5784857885538        1.19751258222639     
   25.0000000000000        35.5787418792828        1.19752120181385     
   25.1000000000000        35.5789979486480        1.19752982068225     
   25.2000000000000        35.5792539966573        1.19753843883184     
   25.3000000000000        35.5795100233183        1.19754705626289     
   25.4000000000000        35.5797660286387        1.19755567297564     
   25.5000000000000        35.5800220126265        1.19756428897038     
   25.6000000000000        35.5802779752892        1.19757290424735     
   25.7000000000000        35.5805339166347        1.19758151880681     
   25.8000000000000        35.5807898366707        1.19759013264904     
   25.9000000000000        35.5810457354050        1.19759874577428     
   26.0000000000000        35.5813016128453        1.19760735818280     
   26.1000000000000        35.5815574689993        1.19761596987487     
   26.2000000000000        35.5818133038749        1.19762458085073     
   26.3000000000000        35.5820691174798        1.19763319111066     
   26.4000000000000        35.5823249098218        1.19764180065492     
   26.5000000000000        35.5825806809085        1.19765040948376     
   26.6000000000000        35.5828364307478        1.19765901759744     
   26.7000000000000        35.5830921593474        1.19766762499624     
   26.8000000000000        35.5833478667151        1.19767623168040     
