 # applied field (T), theta (degree), phi (degree), abs [muB/unitcell], abs [T]
       0.00000000      90.00000000      44.57145966      39.41065170       1.37238782
       0.10000000      89.60332116      45.42854034      39.41063251       1.37238715
       0.20000000      89.15006999      45.42854035      39.41056273       1.37238472
       0.30000000      88.75338881      44.57145965      39.41046088       1.37238118
       0.40000000      88.30013312      44.57145963      39.41029586       1.37237543
       0.50000000      87.90344641      45.42854038      39.41011141       1.37236901
       0.60000000      87.45018253      45.42854039      39.40985122       1.37235995
       0.70000000      87.05348709      44.57145959      39.40958426       1.37235065
       0.80000000      86.65678649      45.42854043      39.40927903       1.37234002
       0.90000000      86.20350399      44.57145954      39.40887971       1.37232612
       1.00000000      85.80678999      45.42854048      39.40849219       1.37231262
       1.10000000      85.35349025      44.57145948      39.40799812       1.37229542
       1.20000000      84.95675965      44.57145945      39.40752850       1.37227906
       1.30000000      84.50343902      45.42854059      39.40693992       1.37225857
       1.40000000      84.10668862      44.57145938      39.40638844       1.37223936
       1.50000000      83.70992793      45.42854066      39.40579904       1.37221884
       1.60000000      83.25657010      45.00000000      39.40507291       1.37219355
       1.70000000      82.85978494      45.00000000      39.40440208       1.37217019
       1.80000000      82.40639712      45.00000000      39.40358198       1.37214163
       1.90000000      82.00958430      45.00000000      39.40283007       1.37211545
       2.00000000      81.55616288      45.00000000      39.40191671       1.37208365
       2.10000000      81.15931921      45.00000000      39.40108411       1.37205465
       2.20000000      80.76246009      45.00000000      39.40021419       1.37202436
       2.30000000      80.30898282      45.00000000      39.39916512       1.37198783
       2.40000000      79.91208818      45.00000000      39.39821515       1.37195475
       2.50000000      79.45856820      45.43686243      39.39707379       1.37191500
       2.60000000      79.06163484      44.56313750      39.39604429       1.37187915
       2.70000000      78.60806866      44.56313741      39.39481181       1.37183623
       2.80000000      78.21109341      44.56313734      39.39370332       1.37179763
       2.90000000      77.81409758      44.56313726      39.39255833       1.37175776
       3.00000000      77.36045696      45.43686283      39.39119319       1.37171022
       3.10000000      76.96341467      45.00000000      39.38997037       1.37166764
       3.20000000      76.50971877      45.00000000      39.38851552       1.37161698
       3.30000000      76.11262666      45.00000000      39.38721497       1.37157169
       3.40000000      75.71551031      45.00000000      39.38587868       1.37152516
       3.50000000      75.26172680      45.00000000      39.38429388       1.37146997
       3.60000000      74.86455607      45.00000000      39.38288119       1.37142078
       3.70000000      74.41070817      44.55448573      39.38120843       1.37136253
       3.80000000      74.01347990      45.44551437      39.37972011       1.37131070
       3.90000000      73.61622377      44.55448552      39.37819695       1.37125766
       4.00000000      73.16227523      45.44551460      39.37639775       1.37119500
       4.10000000      72.76495705      45.00000000      39.37480046       1.37113938
       4.20000000      72.36760874      45.00000000      39.37316865       1.37108256
       4.30000000      71.91355167      45.00000000      39.37124487       1.37101557
       4.40000000      71.51613657      45.00000000      39.36953999       1.37095620
       4.50000000      71.06200086      44.54548448      39.36753219       1.37088628
       4.60000000      70.66451583      44.54548435      39.36575521       1.37082440
       4.70000000      70.26699719      45.45451578      39.36394512       1.37076137
       4.80000000      69.81274007      45.45451593      39.36181705       1.37068726
       4.90000000      69.41514708      45.00000000      39.35993664       1.37062178
       5.00000000      69.01751820      45.00000000      39.35802358       1.37055517
       5.10000000      68.56313184      45.00000000      39.35577761       1.37047695
       5.20000000      68.16542390      45.00000000      39.35379561       1.37040794
       5.30000000      67.71094480      44.53611187      39.35147048       1.37032697
       5.40000000      67.31315472      44.53611172      39.34942073       1.37025559
       5.50000000      66.91532534      45.46388843      39.34733995       1.37018313
       5.60000000      66.46070450      45.00000000      39.34490235       1.37009825
       5.70000000      66.06278848      45.00000000      39.34275565       1.37002349
       5.80000000      65.66483109      45.00000000      39.34057881       1.36994769
       5.90000000      65.21006030      45.47365519      39.33803088       1.36985896
       6.00000000      64.81201179      44.52634465      39.33579008       1.36978093
       6.10000000      64.41391985      45.47365552      39.33352008       1.36970189
       6.20000000      63.95899233      45.00000000      39.33086625       1.36960947
       6.30000000      63.56080486      45.00000000      39.32853436       1.36952827
       6.40000000      63.10576571      45.00000000      39.32580965       1.36943339
       6.50000000      62.70747953      45.48384242      39.32341714       1.36935007
       6.60000000      62.30914669      45.48384260      39.32099739       1.36926581
       6.70000000      61.85393807      44.51615718      39.31817246       1.36916744
       6.80000000      61.45550258      45.00000000      39.31569487       1.36908116
       6.90000000      61.05701804      45.00000000      39.31319066       1.36899396
       7.00000000      60.60163253      44.50552267      39.31026923       1.36889223
       7.10000000      60.20304090      45.49447753      39.30770938       1.36880309
       7.20000000      59.80439845      44.50552227      39.30512430       1.36871307
       7.30000000      59.34882953      45.00000000      39.30211130       1.36860815
       7.40000000      58.95007580      45.00000000      39.29947315       1.36851628
       7.50000000      58.49437703      44.49440973      39.29639933       1.36840924
       7.60000000      58.09550922      45.50559049      39.29370993       1.36831559
       7.70000000      57.69658738      45.50559070      39.29099743       1.36822113
       7.80000000      57.24069358      45.00000000      39.28783960       1.36811117
       7.90000000      56.84165362      45.00000000      39.28507865       1.36801502
       8.00000000      56.38562214      45.51721421      39.28186541       1.36790313
       8.10000000      55.98646138      45.51721443      39.27905802       1.36780537
       8.20000000      55.58724349      44.48278534      39.27622981       1.36770688
       8.30000000      55.13100582      45.00000000      39.27294080       1.36759235
       8.40000000      54.73166327      45.00000000      39.27006918       1.36749235
       8.50000000      54.27528046      45.52938520      39.26673064       1.36737609
       8.60000000      53.87581070      45.52938544      39.26381778       1.36727466
       8.70000000      53.41928075      45.00000000      39.26043307       1.36715679
       8.80000000      53.01968127      45.00000000      39.25748118       1.36705400
       8.90000000      52.56300043      45.54214254      39.25405207       1.36693459
       9.00000000      52.16326881      44.45785720      39.25106345       1.36683052
       9.10000000      51.76347512      45.00000000      39.24805885       1.36672589
       9.20000000      51.30656912      45.00000000      39.24457042       1.36660441
       9.30000000      50.90663939      45.55552987      39.24153218       1.36649861
       9.40000000      50.44957632      44.44446983      39.23800648       1.36637584
       9.50000000      49.99242846      45.00000000      39.23446207       1.36625241
       9.60000000      49.59228657      45.00000000      39.23137771       1.36614501
       9.70000000      49.13497731      44.43040487      39.22780006       1.36602042
       9.80000000      48.73469432      44.43040459      39.22468883       1.36591208
       9.90000000      48.27722223      45.00000000      39.22108165       1.36578647
      10.00000000      47.87679612      45.00000000      39.21794618       1.36567728
      10.10000000      47.41915795      44.41560896      39.21431182       1.36555072
      10.20000000      46.96143060      45.58439137      39.21066444       1.36542371
      10.30000000      46.56078137      45.00000000      39.20749709       1.36531342
      10.40000000      46.10288514      45.00000000      39.20382771       1.36518564
      10.50000000      45.64489757      45.59997613      39.20014759       1.36505749
      10.60000000      45.24402081      45.00000000      39.19695479       1.36494631
      10.70000000      44.78586164      45.00000000      39.19325785       1.36481757
      10.80000000      44.32760959      44.38358515      39.18955290       1.36468855
      10.90000000      43.86926467      45.61641521      39.18584124       1.36455930
      11.00000000      43.41082642      45.00000000      39.18212382       1.36442985
      11.10000000      43.00955472      44.36622029      39.17890311       1.36431770
      11.20000000      42.55094006      44.36621992      39.17517745       1.36418796
      11.30000000      42.09223085      45.00000000      39.17144891       1.36405812
      11.40000000      41.63342623      45.00000000      39.16771822       1.36392821
      11.50000000      41.17452585      44.34784835      39.16398641       1.36379825
      11.60000000      40.71553012      45.00000000      39.16025495       1.36366832
      11.70000000      40.25643799      45.00000000      39.15652447       1.36353841
      11.80000000      39.79724920      44.32837996      39.15279602       1.36340857
      11.90000000      39.33796423      45.00000000      39.14907109       1.36327886
      12.00000000      38.87858213      45.00000000      39.14535035       1.36314930
      12.10000000      38.36171659      44.30771346      39.14113169       1.36300239
      12.20000000      37.90212773      45.00000000      39.13742362       1.36287327
      12.30000000      37.44244123      45.00000000      39.13372316       1.36274440
      12.40000000      36.98265699      44.28573487      39.13003144       1.36261585
      12.50000000      36.46533704      45.00000000      39.12585018       1.36247025
      12.60000000      36.00534514      45.00000000      39.12218087       1.36234247
      12.70000000      35.48778960      45.73768505      39.11802679       1.36219781
      12.80000000      35.02759000      45.00000000      39.11438502       1.36207100
      12.90000000      34.50979947      45.76269225      39.11026416       1.36192750
      13.00000000      34.04939198      44.23730732      39.10665490       1.36180181
      13.10000000      33.53136741      45.00000000      39.10257336       1.36165968
      13.20000000      33.01321825      45.78945484      39.09851459       1.36151835
      13.30000000      32.49494570      45.00000000      39.09448066       1.36137787
      13.40000000      31.97654920      44.18183668      39.09047286       1.36123831
      13.50000000      31.45802984      45.81816383      39.08649318       1.36109973
      13.60000000      30.93938807      45.00000000      39.08254328       1.36096218
      13.70000000      30.42062374      44.15096102      39.07862459       1.36082572
      13.80000000      29.84411710      45.00000000      39.07427063       1.36067410
      13.90000000      29.32509639      44.11766423      39.07042356       1.36054014
      14.00000000      28.74830526      45.00000000      39.06615291       1.36039142
      14.10000000      28.22903155      45.00000000      39.06238512       1.36026022
      14.20000000      27.65195935      44.08164877      39.05820606       1.36011469
      14.30000000      27.07474129      45.00000000      39.05407870       1.35997096
      14.40000000      26.49737788      45.95743124      39.05000508       1.35982911
      14.50000000      25.91987137      45.00000000      39.04598781       1.35968922
      14.60000000      25.28448113      44.00001494      39.04159965       1.35953641
      14.70000000      24.70667775      45.00000000      39.03770771       1.35940088
      14.80000000      24.07096371      43.95350266      39.03346260       1.35925305
      14.90000000      23.43508360      45.00000000      39.02929684       1.35910799
      15.00000000      22.79903928      43.90245259      39.02521322       1.35896579
      15.10000000      22.16283424      45.00000000      39.02121492       1.35882656
      15.20000000      21.46863632      45.00000000      39.01691929       1.35867697
      15.30000000      20.77425247      46.21620358      39.01273195       1.35853116
      15.40000000      20.02181989      45.00000000      39.00829040       1.35837649
      15.50000000      19.32706198      46.28570262      39.00434050       1.35823894
      15.60000000      18.51633295      43.63637504      38.99981927       1.35808150
      15.70000000      17.76329105      45.00000000      38.99579887       1.35794150
      15.80000000      16.95212606      46.45160264      38.99160613       1.35779550
      15.90000000      16.08279794      46.55171423      38.98728369       1.35764498
      16.00000000      15.15526690      45.00000000      38.98287901       1.35749159
      16.10000000      14.22747832      45.00000000      38.97872101       1.35734680
      16.20000000      13.24144737      45.00000000      38.97455646       1.35720178
      16.30000000      12.13912606      45.00000000      38.97020353       1.35705020
      16.40000000      10.97847110      45.00000000      38.96600871       1.35690412
      16.50000000       9.64336333      45.00000000      38.96165615       1.35675256
      16.60000000       8.13369695      47.99999498      38.95738662       1.35660388
      16.70000000       6.21705448      45.00000000      38.95296240       1.35644982
      16.80000000       3.48651602      51.42856949      38.94867847       1.35630064
      16.90000000       0.00000000       0.00000000      38.94692348       1.35623952
      17.00000000       0.00000000       0.00000000      38.94733482       1.35625385
      17.10000000       0.00000000       0.00000000      38.94774615       1.35626817
      17.20000000       0.00000000       0.00000000      38.94815748       1.35628249
      17.30000000       0.00000000       0.00000000      38.94856880       1.35629682
      17.40000000       0.00000000       0.00000000      38.94898012       1.35631114
      17.50000000       0.00000000       0.00000000      38.94939143       1.35632546
      17.60000000       0.00000000       0.00000000      38.94980273       1.35633979
      17.70000000       0.00000000       0.00000000      38.95021404       1.35635411
      17.80000000       0.00000000       0.00000000      38.95062533       1.35636843
      17.90000000       0.00000000       0.00000000      38.95103662       1.35638275
      18.00000000       0.00000000       0.00000000      38.95144791       1.35639708
      18.10000000       0.00000000       0.00000000      38.95185919       1.35641140
      18.20000000       0.00000000       0.00000000      38.95227047       1.35642572
      18.30000000       0.00000000       0.00000000      38.95268174       1.35644004
      18.40000000       0.00000000       0.00000000      38.95309300       1.35645436
      18.50000000       0.00000000       0.00000000      38.95350426       1.35646868
      18.60000000       0.00000000       0.00000000      38.95391552       1.35648301
      18.70000000       0.00000000       0.00000000      38.95432677       1.35649733
      18.80000000       0.00000000       0.00000000      38.95473802       1.35651165
      18.90000000       0.00000000       0.00000000      38.95514926       1.35652597
      19.00000000       0.00000000       0.00000000      38.95556049       1.35654029
      19.10000000       0.00000000       0.00000000      38.95597172       1.35655461
      19.20000000       0.00000000       0.00000000      38.95638295       1.35656893
      19.30000000       0.00000000       0.00000000      38.95679417       1.35658325
      19.40000000       0.00000000       0.00000000      38.95720538       1.35659757
      19.50000000       0.00000000       0.00000000      38.95761659       1.35661189
      19.60000000       0.00000000       0.00000000      38.95802779       1.35662621
      19.70000000       0.00000000       0.00000000      38.95843899       1.35664053
      19.80000000       0.00000000       0.00000000      38.95885019       1.35665484
      19.90000000       0.00000000       0.00000000      38.95926138       1.35666916
      20.00000000       0.00000000       0.00000000      38.95967256       1.35668348
      20.10000000       0.00000000       0.00000000      38.96008374       1.35669780
      20.20000000       0.00000000       0.00000000      38.96049491       1.35671212
      20.30000000       0.00000000       0.00000000      38.96090608       1.35672644
      20.40000000       0.00000000       0.00000000      38.96131725       1.35674075
      20.50000000       0.00000000       0.00000000      38.96172841       1.35675507
      20.60000000       0.00000000       0.00000000      38.96213956       1.35676939
      20.70000000       0.00000000       0.00000000      38.96255071       1.35678371
      20.80000000       0.00000000       0.00000000      38.96296185       1.35679802
      20.90000000       0.00000000       0.00000000      38.96337299       1.35681234
      21.00000000       0.00000000       0.00000000      38.96378413       1.35682666
      21.10000000       0.00000000       0.00000000      38.96419525       1.35684097
      21.20000000       0.00000000       0.00000000      38.96460638       1.35685529
      21.30000000       0.00000000       0.00000000      38.96501750       1.35686961
      21.40000000       0.00000000       0.00000000      38.96542861       1.35688392
      21.50000000       0.00000000       0.00000000      38.96583972       1.35689824
      21.60000000       0.00000000       0.00000000      38.96625082       1.35691256
      21.70000000       0.00000000       0.00000000      38.96666192       1.35692687
      21.80000000       0.00000000       0.00000000      38.96707302       1.35694119
      21.90000000       0.00000000       0.00000000      38.96748411       1.35695550
      22.00000000       0.00000000       0.00000000      38.96789519       1.35696982
      22.10000000       0.00000000       0.00000000      38.96830627       1.35698413
      22.20000000       0.00000000       0.00000000      38.96871734       1.35699845
      22.30000000       0.00000000       0.00000000      38.96912841       1.35701276
      22.40000000       0.00000000       0.00000000      38.96953948       1.35702708
      22.50000000       0.00000000       0.00000000      38.96995054       1.35704139
      22.60000000       0.00000000       0.00000000      38.97036159       1.35705570
      22.70000000       0.00000000       0.00000000      38.97077264       1.35707002
      22.80000000       0.00000000       0.00000000      38.97118368       1.35708433
      22.90000000       0.00000000       0.00000000      38.97159472       1.35709864
      23.00000000       0.00000000       0.00000000      38.97200576       1.35711296
