 # applied field (T), magnetization (2 f.u.), magnetization (T)
 # T=0 1st order approx.
 # K1(0) (K, MJ/m^3)   54.5497251852608        4.35031775189416     
 # K2(0) (K, MJ/m^3)  -16.8258583773546       -1.34185516317946     
 # from A20
 # K1(0) from A20 (K, MJ/m^3)   35.3201727539984        1.40838449698739     
  0.000000000000000E+000  3.126184551187115E-015  1.052221659082726E-016
  0.100000000000000       0.269729495905429       9.078645647371777E-003
  0.200000000000000       0.539450137213985       1.815699326375851E-002
  0.300000000000000       0.854007577201430       2.874447285624510E-002
  0.400000000000000        1.12367866783849       3.782115267954685E-002
  0.500000000000000        1.39331286796113       4.689659082956738E-002
  0.600000000000000        1.66290132383357       5.597048930430487E-002
  0.700000000000000        1.93243518212717       6.504255011546109E-002
  0.800000000000000        2.24671697774877       7.562075197762817E-002
  0.900000000000000        2.51610219601474       8.468780981298671E-002
   1.00000000000000        2.78540478745913       9.375208656713079E-002
   1.10000000000000        3.05461590124020       0.102813284335467     
   1.20000000000000        3.36847467187390       0.113377247881011     
   1.30000000000000        3.63745726030098       0.122430753866499     
   1.40000000000000        3.90632035158718       0.131480237777225     
   1.50000000000000        4.21973780918376       0.142029347460865     
   1.60000000000000        4.48831168521416       0.151069096867716     
   1.70000000000000        4.75673805420503       0.160103881433261     
   1.80000000000000        5.06961075718161       0.170634655583582     
   1.90000000000000        5.33768724356939       0.179657663683372     
   2.00000000000000        5.60558822397515       0.188674764544081     
   2.10000000000000        5.91781277206768       0.199183722880387     
   2.20000000000000        6.18530322754435       0.208187006155636     
   2.30000000000000        6.49702477180726       0.218679034220697     
   2.40000000000000        6.76406322743485       0.227667103933748     
   2.50000000000000        7.07523340209442       0.238140573816165     
   2.60000000000000        7.34177839536675       0.247112034408110     
   2.70000000000000        7.65234884931615       0.257565318690147     
   2.80000000000000        7.91835892982508       0.266518775009274     
   2.90000000000000        8.22828132607755       0.276950246748453     
   3.00000000000000        8.53783480058235       0.287369301195977     
   3.10000000000000        8.80294106955079       0.296292336723782     
   3.20000000000000        9.11177215087409       0.306687076619830     
   3.30000000000000        9.42019429711100       0.317068052441876     
   3.40000000000000        9.72819350809644       0.327434792967677     
   3.50000000000000        10.0357557850005       0.337786827019932     
   3.60000000000000        10.3428671301095       0.348123683458911     
   3.70000000000000        10.6495135465860       0.358444891174374     
   3.80000000000000        10.9556810382070       0.368749979076758     
   3.90000000000000        11.2613556090806       0.379038476087656     
   4.00000000000000        11.5665232633428       0.389309911129588     
   4.10000000000000        11.8711700048323       0.399563813115079     
   4.20000000000000        12.2186042663966       0.411257871771551     
   4.30000000000000        12.5220877793169       0.421472621420541     
   4.40000000000000        12.8250063904040       0.431668357414569     
   4.50000000000000        13.1704122518900       0.443294143502334     
   4.60000000000000        13.5150414614972       0.454893788781225     
   4.70000000000000        13.8160057087384       0.465023744142834     
   4.80000000000000        14.1591222188044       0.476572474474291     
   4.90000000000000        14.5014020023095       0.488093041983125     
   5.00000000000000        14.8428241536093       0.499584743020154     
   5.10000000000000        15.2258064379517       0.512475288924653     
   5.20000000000000        15.5653368685620       0.523903317793588     
   5.30000000000000        15.9039442890972       0.535300279680497     
   5.40000000000000        16.2836824546606       0.548081633949375     
   5.50000000000000        16.6621965814284       0.560821789110802     
   5.60000000000000        17.0394568370120       0.573519741056263     
   5.70000000000000        17.4154333677044       0.586174484959695     
   5.80000000000000        17.8315855637324       0.600181474853147     
   5.90000000000000        18.2047541154216       0.612741706859501     
   6.00000000000000        18.6177128083698       0.626641208757481     
   6.10000000000000        19.0699048398143       0.641861239493347     
   6.20000000000000        19.4791619316302       0.655636151661548     
   6.30000000000000        19.9271830399913       0.670715796072327     
   6.40000000000000        20.4133034749130       0.687077800367726     
   6.50000000000000        45.2996222630488        1.52470984719523     
   6.60000000000000        45.2996682865471        1.52471139626954     
   6.70000000000000        45.2997143158645        1.52471294553971     
   6.80000000000000        45.2997603510019        1.52471449500577     
   6.90000000000000        45.2998063919604        1.52471604466776     
   7.00000000000000        45.2998524387409        1.52471759452571     
   7.10000000000000        45.2998984913446        1.52471914457966     
   7.20000000000000        45.2999445497724        1.52472069482964     
   7.30000000000000        45.2999906140254        1.52472224527568     
   7.40000000000000        45.3000366841046        1.52472379591783     
   7.50000000000000        45.3000827600109        1.52472534675610     
   7.60000000000000        45.3001288417455        1.52472689779055     
   7.70000000000000        45.3001749293093        1.52472844902120     
   7.80000000000000        45.3002210227034        1.52473000044808     
   7.90000000000000        45.3002671219288        1.52473155207124     
   8.00000000000000        45.3003132269864        1.52473310389070     
   8.10000000000000        45.3003593378774        1.52473465590650     
   8.20000000000000        45.3004054546027        1.52473620811868     
   8.30000000000000        45.3004515771634        1.52473776052726     
   8.40000000000000        45.3004977055605        1.52473931313229     
   8.50000000000000        45.3005438397950        1.52474086593379     
   8.60000000000000        45.3005899798680        1.52474241893181     
   8.70000000000000        45.3006361257804        1.52474397212638     
   8.80000000000000        45.3006822775333        1.52474552551752     
   8.90000000000000        45.3007284351277        1.52474707910528     
   9.00000000000000        45.3007745985647        1.52474863288969     
   9.10000000000000        45.3008207678452        1.52475018687079     
   9.20000000000000        45.3008669429703        1.52475174104860     
   9.30000000000000        45.3009131239410        1.52475329542317     
   9.40000000000000        45.3009593107583        1.52475484999453     
   9.50000000000000        45.3010055034233        1.52475640476270     
   9.60000000000000        45.3010517019369        1.52475795972774     
   9.70000000000000        45.3010979063003        1.52475951488966     
   9.80000000000000        45.3011441165144        1.52476107024852     
   9.90000000000000        45.3011903325803        1.52476262580433     
   10.0000000000000        45.3012365544989        1.52476418155714     
   10.1000000000000        45.3012827822714        1.52476573750697     
   10.2000000000000        45.3013290158987        1.52476729365387     
   10.3000000000000        45.3013752553818        1.52476884999787     
   10.4000000000000        45.3014215007219        1.52477040653901     
   10.5000000000000        45.3014677519198        1.52477196327731     
   10.6000000000000        45.3015140089767        1.52477352021281     
   10.7000000000000        45.3015602718936        1.52477507734555     
   10.8000000000000        45.3016065406715        1.52477663467556     
   10.9000000000000        45.3016528153114        1.52477819220288     
   11.0000000000000        45.3016990958143        1.52477974992754     
   11.1000000000000        45.3017453821814        1.52478130784957     
   11.2000000000000        45.3017916744136        1.52478286596901     
   11.3000000000000        45.3018379725118        1.52478442428590     
   11.4000000000000        45.3018842764773        1.52478598280027     
   11.5000000000000        45.3019305863110        1.52478754151215     
   11.6000000000000        45.3019769020139        1.52478910042158     
   11.7000000000000        45.3020232235870        1.52479065952859     
   11.8000000000000        45.3020695510315        1.52479221883322     
   11.9000000000000        45.3021158843483        1.52479377833550     
   12.0000000000000        45.3021622235384        1.52479533803547     
   12.1000000000000        45.3022085686029        1.52479689793317     
   12.2000000000000        45.3022549195428        1.52479845802861     
   12.3000000000000        45.3023012763591        1.52480001832185     
   12.4000000000000        45.3023476390529        1.52480157881292     
   12.5000000000000        45.3023940076252        1.52480313950184     
   12.6000000000000        45.3024403820771        1.52480470038866     
   12.7000000000000        45.3024867624095        1.52480626147342     
   12.8000000000000        45.3025331486235        1.52480782275613     
   12.9000000000000        45.3025795407202        1.52480938423685     
   13.0000000000000        45.3026259387005        1.52481094591560     
   13.1000000000000        45.3026723425655        1.52481250779242     
   13.2000000000000        45.3027187523162        1.52481406986734     
   13.3000000000000        45.3027651679537        1.52481563214040     
   13.4000000000000        45.3028115894789        1.52481719461163     
   13.5000000000000        45.3028580168931        1.52481875728108     
   13.6000000000000        45.3029044501970        1.52482032014876     
   13.7000000000000        45.3029508893919        1.52482188321473     
   13.8000000000000        45.3029973344787        1.52482344647900     
   13.9000000000000        45.3030437854584        1.52482500994162     
   14.0000000000000        45.3030902423322        1.52482657360263     
   14.1000000000000        45.3031367051010        1.52482813746205     
   14.2000000000000        45.3031831737658        1.52482970151993     
   14.3000000000000        45.3032296483278        1.52483126577629     
   14.4000000000000        45.3032761287879        1.52483283023117     
   14.5000000000000        45.3033226151471        1.52483439488461     
   14.6000000000000        45.3033691074066        1.52483595973664     
   14.7000000000000        45.3034156055673        1.52483752478729     
   14.8000000000000        45.3034621096303        1.52483909003661     
   14.9000000000000        45.3035086195966        1.52484065548462     
   15.0000000000000        45.3035551354673        1.52484222113136     
   15.1000000000000        45.3036016572434        1.52484378697687     
   15.2000000000000        45.3036481849259        1.52484535302118     
   15.3000000000000        45.3036947185158        1.52484691926433     
   15.4000000000000        45.3037412580143        1.52484848570634     
   15.5000000000000        45.3037878034223        1.52485005234726     
   15.6000000000000        45.3038343547408        1.52485161918712     
   15.7000000000000        45.3038809119710        1.52485318622596     
   15.8000000000000        45.3039274751139        1.52485475346380     
   15.9000000000000        45.3039740441704        1.52485632090069     
   16.0000000000000        45.3040206191417        1.52485788853667     
   16.1000000000000        45.3040672000287        1.52485945637175     
   16.2000000000000        45.3041137868325        1.52486102440599     
   16.3000000000000        45.3041603795542        1.52486259263941     
   16.4000000000000        45.3042069781948        1.52486416107205     
   16.5000000000000        45.3042535827553        1.52486572970394     
   16.6000000000000        45.3043001932368        1.52486729853513     
   16.7000000000000        45.3043468096403        1.52486886756564     
   16.8000000000000        45.3043934319668        1.52487043679551     
   16.9000000000000        45.3044400602175        1.52487200622477     
   17.0000000000000        45.3044866943932        1.52487357585347     
   17.1000000000000        45.3045333344952        1.52487514568163     
   17.2000000000000        45.3045799805243        1.52487671570929     
   17.3000000000000        45.3046266324817        1.52487828593649     
   17.4000000000000        45.3046732903684        1.52487985636325     
   17.5000000000000        45.3047199541854        1.52488142698962     
   17.6000000000000        45.3047666239338        1.52488299781564     
   17.7000000000000        45.3048132996147        1.52488456884132     
   17.8000000000000        45.3048599812290        1.52488614006672     
   17.9000000000000        45.3049066687778        1.52488771149186     
   18.0000000000000        45.3049533622621        1.52488928311679     
   18.1000000000000        45.3050000616831        1.52489085494153     
   18.2000000000000        45.3050467670417        1.52489242696612     
   18.3000000000000        45.3050934783390        1.52489399919060     
   18.4000000000000        45.3051401955760        1.52489557161499     
   18.5000000000000        45.3051869187537        1.52489714423935     
   18.6000000000000        45.3052336478733        1.52489871706370     
   18.7000000000000        45.3052803829357        1.52490029008807     
   18.8000000000000        45.3053271239421        1.52490186331250     
   18.9000000000000        45.3053738708934        1.52490343673704     
   19.0000000000000        45.3054206237907        1.52490501036170     
   19.1000000000000        45.3054673826350        1.52490658418653     
   19.2000000000000        45.3055141474274        1.52490815821157     
   19.3000000000000        45.3055609181690        1.52490973243684     
   19.4000000000000        45.3056076948607        1.52491130686238     
   19.5000000000000        45.3056544775036        1.52491288148824     
   19.6000000000000        45.3057012660988        1.52491445631443     
   19.7000000000000        45.3057480606473        1.52491603134101     
   19.8000000000000        45.3057948611502        1.52491760656800     
   19.9000000000000        45.3058416676085        1.52491918199544     
   20.0000000000000        45.3058884800233        1.52492075762336     
   20.1000000000000        45.3059352983955        1.52492233345180     
   20.2000000000000        45.3059821227264        1.52492390948080     
   20.3000000000000        45.3060289530168        1.52492548571039     
   20.4000000000000        45.3060757892678        1.52492706214060     
   20.5000000000000        45.3061226314806        1.52492863877148     
   20.6000000000000        45.3061694796561        1.52493021560305     
   20.7000000000000        45.3062163337954        1.52493179263535     
   20.8000000000000        45.3062631938996        1.52493336986842     
   20.9000000000000        45.3063100599696        1.52493494730229     
   21.0000000000000        45.3063569320066        1.52493652493700     
   21.1000000000000        45.3064038100116        1.52493810277258     
   21.2000000000000        45.3064506939856        1.52493968080907     
   21.3000000000000        45.3064975839297        1.52494125904650     
   21.4000000000000        45.3065444798449        1.52494283748491     
   21.5000000000000        45.3065913817324        1.52494441612434     
   21.6000000000000        45.3066382895931        1.52494599496481     
   21.7000000000000        45.3066852034281        1.52494757400637     
   21.8000000000000        45.3067321232384        1.52494915324905     
   21.9000000000000        45.3067790490251        1.52495073269289     
   22.0000000000000        45.3068259807893        1.52495231233791     
   22.1000000000000        45.3068729185320        1.52495389218416     
   22.2000000000000        45.3069198622543        1.52495547223168     
   22.3000000000000        45.3069668119571        1.52495705248049     
   22.4000000000000        45.3070137676416        1.52495863293064     
   22.5000000000000        45.3070607293088        1.52496021358215     
   22.6000000000000        45.3071076969598        1.52496179443506     
   22.7000000000000        45.3071546705956        1.52496337548942     
   22.8000000000000        45.3072016502173        1.52496495674525     
   22.9000000000000        45.3072486358259        1.52496653820259     
   23.0000000000000        45.3072956274225        1.52496811986147     
   23.1000000000000        45.3073426250081        1.52496970172194     
   23.2000000000000        45.3073896285838        1.52497128378402     
   23.3000000000000        45.3074366381507        1.52497286604776     
   23.4000000000000        45.3074836537097        1.52497444851318     
   23.5000000000000        45.3075306752620        1.52497603118032     
   23.6000000000000        45.3075777028086        1.52497761404923     
   23.7000000000000        45.3076247363506        1.52497919711992     
   23.8000000000000        45.3076717758890        1.52498078039245     
   23.9000000000000        45.3077188214248        1.52498236386684     
   24.0000000000000        45.3077658729592        1.52498394754313     
   24.1000000000000        45.3078129304932        1.52498553142136     
   24.2000000000000        45.3078599940278        1.52498711550156     
   24.3000000000000        45.3079070635642        1.52498869978377     
   24.4000000000000        45.3079541391033        1.52499028426802     
   24.5000000000000        45.3080012206461        1.52499186895435     
   24.6000000000000        45.3080483081939        1.52499345384279     
   24.7000000000000        45.3080954017476        1.52499503893338     
   24.8000000000000        45.3081425013083        1.52499662422616     
   24.9000000000000        45.3081896068770        1.52499820972116     
   25.0000000000000        45.3082367184549        1.52499979541841     
   25.1000000000000        45.3082838360429        1.52500138131796     
   25.2000000000000        45.3083309596421        1.52500296741983     
   25.3000000000000        45.3083780892536        1.52500455372407     
   25.4000000000000        45.3084252248784        1.52500614023070     
   25.5000000000000        45.3084723665177        1.52500772693978     
   25.6000000000000        45.3085195141724        1.52500931385132     
   25.7000000000000        45.3085666678436        1.52501090096536     
   25.8000000000000        45.3086138275324        1.52501248828195     
   25.9000000000000        45.3086609932398        1.52501407580112     
   26.0000000000000        45.3087081649669        1.52501566352290     
   26.1000000000000        45.3087553427148        1.52501725144733     
   26.2000000000000        45.3088025264845        1.52501883957444     
   26.3000000000000        45.3088497162771        1.52502042790427     
   26.4000000000000        45.3088969120937        1.52502201643686     
   26.5000000000000        45.3089441139352        1.52502360517224     
   26.6000000000000        45.3089913218028        1.52502519411045     
   26.7000000000000        45.3090385356976        1.52502678325152     
   26.8000000000000        45.3090857556205        1.52502837259549     
