 # applied field (T), theta (degree), phi (degree), abs for RE 1-2
     0.00000   180.00000   180.00000     4.40941   180.00000   180.00000     4.40941
     0.10000   179.69155   180.00000     4.40941   179.69155   180.00000     4.40941
     0.20000   179.38307   180.00000     4.40939   179.38307   180.00000     4.40939
     0.30000   179.07455   180.00000     4.40937   179.07455   180.00000     4.40937
     0.40000   178.76597   180.00000     4.40934   178.76597   180.00000     4.40934
     0.50000   178.40592   180.00000     4.40929   178.40592   180.00000     4.40929
     0.60000   178.09714   180.00000     4.40924   178.09714   180.00000     4.40924
     0.70000   177.78822   180.00000     4.40918   177.78822   180.00000     4.40918
     0.80000   177.47916   180.00000     4.40911   177.47916   180.00000     4.40911
     0.90000   177.16993   180.00000     4.40903   177.16993   180.00000     4.40903
     1.00000   176.86050   180.00000     4.40894   176.86050   180.00000     4.40894
     1.10000   176.55087   180.00000     4.40885   176.55087   180.00000     4.40885
     1.20000   176.18940   180.00000     4.40873   176.18940   180.00000     4.40873
     1.30000   175.87924   180.00000     4.40861   175.87924   180.00000     4.40861
     1.40000   175.56880   180.00000     4.40849   175.56880   180.00000     4.40849
     1.50000   175.25807   180.00000     4.40836   175.25807   180.00000     4.40836
     1.60000   174.89521   180.00000     4.40819   174.89521   180.00000     4.40819
     1.70000   174.58376   180.00000     4.40804   174.58376   180.00000     4.40804
     1.80000   174.27195   180.00000     4.40788   174.27195   180.00000     4.40788
     1.90000   173.90776   180.00000     4.40768   173.90776   180.00000     4.40768
     2.00000   173.59509   180.00000     4.40750   173.59509   180.00000     4.40750
     2.10000   173.22985   180.00000     4.40729   173.22985   180.00000     4.40729
     2.20000   172.91624   180.00000     4.40709   172.91624   180.00000     4.40709
     2.30000   172.54984   180.00000     4.40685   172.54984   180.00000     4.40685
     2.40000   172.23519   180.00000     4.40663   172.23519   180.00000     4.40663
     2.50000   171.86752   180.00000     4.40637   171.86752   180.00000     4.40637
     2.60000   171.55173   180.00000     4.40614   171.55173   180.00000     4.40614
     2.70000   171.18269   180.00000     4.40586   171.18269   180.00000     4.40586
     2.80000   170.81286   180.00000     4.40557   170.81286   180.00000     4.40557
     2.90000   170.44221   180.00000     4.40527   170.44221   180.00000     4.40527
     3.00000   170.07072   180.00000     4.40495   170.07072   180.00000     4.40495
     3.10000   169.69836   180.00000     4.40463   169.69836   180.00000     4.40463
     3.20000   169.32508   180.00000     4.40430   169.32508   180.00000     4.40430
     3.30000   168.95088   180.00000     4.40395   168.95088   180.00000     4.40395
     3.40000   168.57570   180.00000     4.40360   168.57570   180.00000     4.40360
     3.50000   168.19953   180.00000     4.40324   168.19953   180.00000     4.40324
     3.60000   167.76846   180.00000     4.40281   167.76846   180.00000     4.40281
     3.70000   167.39007   180.00000     4.40243   167.39007   180.00000     4.40243
     3.80000   166.95638   180.00000     4.40198   166.95638   180.00000     4.40198
     3.90000   166.57564   180.00000     4.40158   166.57564   180.00000     4.40158
     4.00000   166.13920   180.00000     4.40111   166.13920   180.00000     4.40111
     4.10000   165.70123   180.00000     4.40063   165.70123   180.00000     4.40063
     4.20000   165.26171   180.00000     4.40013   165.26171   180.00000     4.40013
     4.30000   164.76542   180.00000     4.39957   164.76542   180.00000     4.39957
     4.40000   164.32246   180.00000     4.39906   164.32246   180.00000     4.39906
     4.50000   163.82222   180.00000     4.39848   163.82222   180.00000     4.39848
     4.60000   163.31982   180.00000     4.39788   163.31982   180.00000     4.39788
     4.70000   162.81522   180.00000     4.39727   162.81522   180.00000     4.39727
     4.80000   162.30838   180.00000     4.39666   162.30838   180.00000     4.39666
     4.90000    90.00000   180.00000     4.40360    90.00000   180.00000     4.40360
     5.00000    90.00000   180.00000     4.40356    90.00000   180.00000     4.40356
     5.10000    90.00000   180.00000     4.40352    90.00000   180.00000     4.40352
     5.20000    90.00000   180.00000     4.40348    90.00000   180.00000     4.40348
     5.30000    90.00000   180.00000     4.40344    90.00000   180.00000     4.40344
     5.40000    90.00000   180.00000     4.40340    90.00000   180.00000     4.40340
     5.50000    90.00000   180.00000     4.40337    90.00000   180.00000     4.40337
     5.60000    90.00000   180.00000     4.40333    90.00000   180.00000     4.40333
     5.70000    90.00000   180.00000     4.40329    90.00000   180.00000     4.40329
     5.80000    90.00000   180.00000     4.40325    90.00000   180.00000     4.40325
     5.90000    90.00000   180.00000     4.40321    90.00000   180.00000     4.40321
     6.00000    90.00000   180.00000     4.40317    90.00000   180.00000     4.40317
     6.10000    90.00000   180.00000     4.40313    90.00000   180.00000     4.40313
     6.20000    90.00000   180.00000     4.40309    90.00000   180.00000     4.40309
     6.30000    90.00000   180.00000     4.40306    90.00000   180.00000     4.40306
     6.40000    90.00000   180.00000     4.40302    90.00000   180.00000     4.40302
     6.50000    90.00000   180.00000     4.40298    90.00000   180.00000     4.40298
     6.60000    90.00000   180.00000     4.40294    90.00000   180.00000     4.40294
     6.70000    90.00000   180.00000     4.40290    90.00000   180.00000     4.40290
     6.80000    90.00000   180.00000     4.40286    90.00000   180.00000     4.40286
     6.90000    90.00000   180.00000     4.40282    90.00000   180.00000     4.40282
     7.00000    90.00000   180.00000     4.40279    90.00000   180.00000     4.40279
     7.10000    90.00000   180.00000     4.40275    90.00000   180.00000     4.40275
     7.20000    90.00000   180.00000     4.40271    90.00000   180.00000     4.40271
     7.30000    90.00000   180.00000     4.40267    90.00000   180.00000     4.40267
     7.40000    90.00000   180.00000     4.40263    90.00000   180.00000     4.40263
     7.50000    90.00000   180.00000     4.40259    90.00000   180.00000     4.40259
     7.60000    90.00000   180.00000     4.40255    90.00000   180.00000     4.40255
     7.70000    90.00000   180.00000     4.40251    90.00000   180.00000     4.40251
     7.80000    90.00000   180.00000     4.40248    90.00000   180.00000     4.40248
     7.90000    90.00000   180.00000     4.40244    90.00000   180.00000     4.40244
     8.00000    90.00000   180.00000     4.40240    90.00000   180.00000     4.40240
     8.10000    90.00000   180.00000     4.40236    90.00000   180.00000     4.40236
     8.20000    90.00000   180.00000     4.40232    90.00000   180.00000     4.40232
     8.30000    90.00000   180.00000     4.40228    90.00000   180.00000     4.40228
     8.40000    90.00000   180.00000     4.40224    90.00000   180.00000     4.40224
     8.50000    90.00000   180.00000     4.40220    90.00000   180.00000     4.40220
     8.60000    90.00000   180.00000     4.40217    90.00000   180.00000     4.40217
     8.70000    90.00000   180.00000     4.40213    90.00000   180.00000     4.40213
     8.80000    90.00000   180.00000     4.40209    90.00000   180.00000     4.40209
     8.90000    90.00000   180.00000     4.40205    90.00000   180.00000     4.40205
     9.00000    90.00000   180.00000     4.40201    90.00000   180.00000     4.40201
     9.10000    90.00000   180.00000     4.40197    90.00000   180.00000     4.40197
     9.20000    90.00000   180.00000     4.40193    90.00000   180.00000     4.40193
     9.30000    90.00000   180.00000     4.40189    90.00000   180.00000     4.40189
     9.40000    90.00000   180.00000     4.40186    90.00000   180.00000     4.40186
     9.50000    90.00000   180.00000     4.40182    90.00000   180.00000     4.40182
     9.60000    90.00000   180.00000     4.40178    90.00000   180.00000     4.40178
     9.70000    90.00000   180.00000     4.40174    90.00000   180.00000     4.40174
     9.80000    90.00000   180.00000     4.40170    90.00000   180.00000     4.40170
     9.90000    90.00000   180.00000     4.40166    90.00000   180.00000     4.40166
    10.00000    90.00000   180.00000     4.40162    90.00000   180.00000     4.40162
    10.10000    90.00000   180.00000     4.40158    90.00000   180.00000     4.40158
    10.20000    90.00000   180.00000     4.40154    90.00000   180.00000     4.40154
    10.30000    90.00000   180.00000     4.40151    90.00000   180.00000     4.40151
    10.40000    90.00000   180.00000     4.40147    90.00000   180.00000     4.40147
    10.50000    90.00000   180.00000     4.40143    90.00000   180.00000     4.40143
    10.60000    90.00000   180.00000     4.40139    90.00000   180.00000     4.40139
    10.70000    90.00000   180.00000     4.40135    90.00000   180.00000     4.40135
    10.80000    90.00000   180.00000     4.40131    90.00000   180.00000     4.40131
    10.90000    90.00000   180.00000     4.40127    90.00000   180.00000     4.40127
    11.00000    90.00000   180.00000     4.40123    90.00000   180.00000     4.40123
    11.10000    90.00000   180.00000     4.40119    90.00000   180.00000     4.40119
    11.20000    90.00000   180.00000     4.40116    90.00000   180.00000     4.40116
    11.30000    90.00000   180.00000     4.40112    90.00000   180.00000     4.40112
    11.40000    90.00000   180.00000     4.40108    90.00000   180.00000     4.40108
    11.50000    90.00000   180.00000     4.40104    90.00000   180.00000     4.40104
    11.60000    90.00000   180.00000     4.40100    90.00000   180.00000     4.40100
    11.70000    90.00000   180.00000     4.40096    90.00000   180.00000     4.40096
    11.80000    90.00000   180.00000     4.40092    90.00000   180.00000     4.40092
    11.90000    90.00000   180.00000     4.40088    90.00000   180.00000     4.40088
    12.00000    90.00000   180.00000     4.40084    90.00000   180.00000     4.40084
    12.10000    90.00000   180.00000     4.40081    90.00000   180.00000     4.40081
    12.20000    90.00000   180.00000     4.40077    90.00000   180.00000     4.40077
    12.30000    90.00000   180.00000     4.40073    90.00000   180.00000     4.40073
    12.40000    90.00000   180.00000     4.40069    90.00000   180.00000     4.40069
    12.50000    90.00000   180.00000     4.40065    90.00000   180.00000     4.40065
    12.60000    90.00000   180.00000     4.40061    90.00000   180.00000     4.40061
    12.70000    90.00000   180.00000     4.40057    90.00000   180.00000     4.40057
    12.80000    90.00000   180.00000     4.40053    90.00000   180.00000     4.40053
    12.90000    90.00000   180.00000     4.40049    90.00000   180.00000     4.40049
    13.00000    90.00000   180.00000     4.40046    90.00000   180.00000     4.40046
    13.10000    90.00000   180.00000     4.40042    90.00000   180.00000     4.40042
    13.20000    90.00000   180.00000     4.40038    90.00000   180.00000     4.40038
    13.30000    90.00000   180.00000     4.40034    90.00000   180.00000     4.40034
    13.40000    90.00000   180.00000     4.40030    90.00000   180.00000     4.40030
    13.50000    90.00000   180.00000     4.40026    90.00000   180.00000     4.40026
    13.60000    90.00000   180.00000     4.40022    90.00000   180.00000     4.40022
    13.70000    90.00000   180.00000     4.40018    90.00000   180.00000     4.40018
    13.80000    90.00000   180.00000     4.40014    90.00000   180.00000     4.40014
    13.90000    90.00000   180.00000     4.40010    90.00000   180.00000     4.40010
    14.00000    90.00000   180.00000     4.40007    90.00000   180.00000     4.40007
    14.10000    90.00000   180.00000     4.40003    90.00000   180.00000     4.40003
    14.20000    90.00000   180.00000     4.39999    90.00000   180.00000     4.39999
    14.30000    90.00000   180.00000     4.39995    90.00000   180.00000     4.39995
    14.40000    90.00000   180.00000     4.39991    90.00000   180.00000     4.39991
    14.50000    90.00000   180.00000     4.39987    90.00000   180.00000     4.39987
    14.60000    90.00000   180.00000     4.39983    90.00000   180.00000     4.39983
    14.70000    90.00000   180.00000     4.39979    90.00000   180.00000     4.39979
    14.80000    90.00000   180.00000     4.39975    90.00000   180.00000     4.39975
    14.90000    90.00000   180.00000     4.39971    90.00000   180.00000     4.39971
    15.00000    90.00000   180.00000     4.39967    90.00000   180.00000     4.39967
    15.10000    90.00000   180.00000     4.39964    90.00000   180.00000     4.39964
    15.20000    90.00000   180.00000     4.39960    90.00000   180.00000     4.39960
    15.30000    90.00000   180.00000     4.39956    90.00000   180.00000     4.39956
    15.40000    90.00000   180.00000     4.39952    90.00000   180.00000     4.39952
    15.50000    90.00000   180.00000     4.39948    90.00000   180.00000     4.39948
    15.60000    90.00000   180.00000     4.39944    90.00000   180.00000     4.39944
    15.70000    90.00000   180.00000     4.39940    90.00000   180.00000     4.39940
    15.80000    90.00000   180.00000     4.39936    90.00000   180.00000     4.39936
    15.90000    90.00000   180.00000     4.39932    90.00000   180.00000     4.39932
    16.00000    90.00000   180.00000     4.39928    90.00000   180.00000     4.39928
    16.10000    90.00000   180.00000     4.39924    90.00000   180.00000     4.39924
    16.20000    90.00000   180.00000     4.39921    90.00000   180.00000     4.39921
    16.30000    90.00000   180.00000     4.39917    90.00000   180.00000     4.39917
    16.40000    90.00000   180.00000     4.39913    90.00000   180.00000     4.39913
    16.50000    90.00000   180.00000     4.39909    90.00000   180.00000     4.39909
    16.60000    90.00000   180.00000     4.39905    90.00000   180.00000     4.39905
    16.70000    90.00000   180.00000     4.39901    90.00000   180.00000     4.39901
    16.80000    90.00000   180.00000     4.39897    90.00000   180.00000     4.39897
    16.90000    90.00000   180.00000     4.39893    90.00000   180.00000     4.39893
    17.00000    90.00000   180.00000     4.39889    90.00000   180.00000     4.39889
    17.10000    90.00000   180.00000     4.39885    90.00000   180.00000     4.39885
    17.20000    90.00000   180.00000     4.39881    90.00000   180.00000     4.39881
    17.30000    90.00000   180.00000     4.39878    90.00000   180.00000     4.39878
    17.40000    90.00000   180.00000     4.39874    90.00000   180.00000     4.39874
    17.50000    90.00000   180.00000     4.39870    90.00000   180.00000     4.39870
    17.60000    90.00000   180.00000     4.39866    90.00000   180.00000     4.39866
    17.70000    90.00000   180.00000     4.39862    90.00000   180.00000     4.39862
    17.80000    90.00000   180.00000     4.39858    90.00000   180.00000     4.39858
    17.90000    90.00000   180.00000     4.39854    90.00000   180.00000     4.39854
    18.00000    90.00000   180.00000     4.39850    90.00000   180.00000     4.39850
    18.10000    90.00000   180.00000     4.39846    90.00000   180.00000     4.39846
    18.20000    90.00000   180.00000     4.39842    90.00000   180.00000     4.39842
    18.30000    90.00000   180.00000     4.39838    90.00000   180.00000     4.39838
    18.40000    90.00000   180.00000     4.39834    90.00000   180.00000     4.39834
    18.50000    90.00000   180.00000     4.39830    90.00000   180.00000     4.39830
    18.60000    90.00000   180.00000     4.39827    90.00000   180.00000     4.39827
    18.70000    90.00000   180.00000     4.39823    90.00000   180.00000     4.39823
    18.80000    90.00000   180.00000     4.39819    90.00000   180.00000     4.39819
    18.90000    90.00000   180.00000     4.39815    90.00000   180.00000     4.39815
    19.00000    90.00000   180.00000     4.39811    90.00000   180.00000     4.39811
    19.10000    90.00000   180.00000     4.39807    90.00000   180.00000     4.39807
    19.20000    90.00000   180.00000     4.39803    90.00000   180.00000     4.39803
    19.30000    90.00000   180.00000     4.39799    90.00000   180.00000     4.39799
    19.40000    90.00000   180.00000     4.39795    90.00000   180.00000     4.39795
    19.50000    90.00000   180.00000     4.39791    90.00000   180.00000     4.39791
    19.60000    90.00000   180.00000     4.39787    90.00000   180.00000     4.39787
    19.70000    90.00000   180.00000     4.39783    90.00000   180.00000     4.39783
    19.80000    90.00000   180.00000     4.39779    90.00000   180.00000     4.39779
    19.90000    90.00000   180.00000     4.39775    90.00000   180.00000     4.39775
    20.00000    90.00000   180.00000     4.39772    90.00000   180.00000     4.39772
    20.10000    90.00000   180.00000     4.39768    90.00000   180.00000     4.39768
    20.20000    90.00000   180.00000     4.39764    90.00000   180.00000     4.39764
    20.30000    90.00000   180.00000     4.39760    90.00000   180.00000     4.39760
    20.40000    90.00000   180.00000     4.39756    90.00000   180.00000     4.39756
    20.50000    90.00000   180.00000     4.39752    90.00000   180.00000     4.39752
    20.60000    90.00000   180.00000     4.39748    90.00000   180.00000     4.39748
    20.70000    90.00000   180.00000     4.39744    90.00000   180.00000     4.39744
    20.80000    90.00000   180.00000     4.39740    90.00000   180.00000     4.39740
    20.90000    90.00000   180.00000     4.39736    90.00000   180.00000     4.39736
    21.00000    90.00000   180.00000     4.39732    90.00000   180.00000     4.39732
    21.10000    90.00000   180.00000     4.39728    90.00000   180.00000     4.39728
    21.20000    90.00000   180.00000     4.39724    90.00000   180.00000     4.39724
    21.30000    90.00000   180.00000     4.39720    90.00000   180.00000     4.39720
    21.40000    90.00000   180.00000     4.39716    90.00000   180.00000     4.39716
    21.50000    90.00000   180.00000     4.39713    90.00000   180.00000     4.39713
    21.60000    90.00000   180.00000     4.39709    90.00000   180.00000     4.39709
    21.70000    90.00000   180.00000     4.39705    90.00000   180.00000     4.39705
    21.80000    90.00000   180.00000     4.39701    90.00000   180.00000     4.39701
    21.90000    90.00000   180.00000     4.39697    90.00000   180.00000     4.39697
    22.00000    90.00000   180.00000     4.39693    90.00000   180.00000     4.39693
    22.10000    90.00000   180.00000     4.39689    90.00000   180.00000     4.39689
    22.20000    90.00000   180.00000     4.39685    90.00000   180.00000     4.39685
    22.30000    90.00000   180.00000     4.39681    90.00000   180.00000     4.39681
    22.40000    90.00000   180.00000     4.39677    90.00000   180.00000     4.39677
    22.50000    90.00000   180.00000     4.39673    90.00000   180.00000     4.39673
    22.60000    90.00000   180.00000     4.39669    90.00000   180.00000     4.39669
    22.70000    90.00000   180.00000     4.39665    90.00000   180.00000     4.39665
    22.80000    90.00000   180.00000     4.39661    90.00000   180.00000     4.39661
    22.90000    90.00000   180.00000     4.39657    90.00000   180.00000     4.39657
    23.00000    90.00000   180.00000     4.39653    90.00000   180.00000     4.39653
    23.10000    90.00000   180.00000     4.39649    90.00000   180.00000     4.39649
    23.20000    90.00000   180.00000     4.39646    90.00000   180.00000     4.39646
    23.30000    90.00000   180.00000     4.39642    90.00000   180.00000     4.39642
