 # applied field (T), magnetization (2 f.u.), magnetization (T)
  0.000000000000000E+000  1.010626764219724E-015  3.401601387086619E-017
  0.100000000000000       0.209383535085413       7.047501101255130E-003
  0.200000000000000       0.418762359094136       1.409484363551427E-002
  0.300000000000000       0.628131760946700       2.114186903568802E-002
  0.400000000000000       0.879244788122249       2.959391534791248E-002
  0.500000000000000        1.08857688868450       3.663968524877265E-002
  0.600000000000000        1.29788449382300       4.368463067446211E-002
  0.700000000000000        1.50716289241634       5.072859305647949E-002
  0.800000000000000        1.71640737332228       5.777141382562271E-002
  0.900000000000000        1.92561322537252       6.481293441181224E-002
   1.00000000000000        2.17649154085862       7.325708071943894E-002
   1.10000000000000        2.38559585039712       8.029518355378386E-002
   1.20000000000000        2.59464645737002       8.733147884920213E-002
   1.30000000000000        2.80363865043041       9.436580802960289E-002
   1.40000000000000        3.01256771816276       0.101398012516586     
   1.50000000000000        3.26308170864601       0.109829896251333     
   1.60000000000000        3.47185535247214       0.116856869428462     
   1.70000000000000        3.68055079616930       0.123881210519478     
   1.80000000000000        3.88916332789764       0.130902760931698     
   1.90000000000000        4.09768823566930       0.137921362067458     
   2.00000000000000        4.34768510982500       0.146335840527782     
   2.10000000000000        4.55600070655687       0.153347396602511     
   2.20000000000000        4.76421360214176       0.160355495927663     
   2.30000000000000        5.01381632290103       0.168756707841053     
   2.40000000000000        5.22178674288551       0.175756645841294     
   2.50000000000000        5.42963938208650       0.182752619536504     
   2.60000000000000        5.67879007785865       0.191138617041592     
   2.70000000000000        5.88636707063562       0.198125312937208     
   2.80000000000000        6.09381119951800       0.205107536855393     
   2.90000000000000        6.34245198623065       0.213476371670698     
   3.00000000000000        6.54958728909289       0.220448201019338     
   3.10000000000000        6.79784395547452       0.228804106983982     
   3.20000000000000        7.00464761648668       0.235764773820236     
   3.30000000000000        7.21129295011585       0.242720111620445     
   3.40000000000000        7.45894198906622       0.251055565857644     
   3.50000000000000        7.70634829591853       0.259382850136648     
   3.60000000000000        7.91242019773060       0.266318887176838     
   3.70000000000000        8.15936024677757       0.274630477994582     
   3.80000000000000        8.36503201385561       0.281553047165974     
   3.90000000000000        8.61147840446483       0.289848022262800     
   4.00000000000000        8.85764402897138       0.298133547240174     
   4.10000000000000        9.06265250362515       0.305033791093158     
   4.20000000000000        9.30828209880522       0.313301274216061     
   4.30000000000000        9.55360781144906       0.321558529158854     
   4.40000000000000        9.79862147853680       0.329805281167884     
   4.50000000000000        10.0026456477876       0.336672394940184     
   4.60000000000000        10.2470658961475       0.344899173463063     
   4.70000000000000        10.4911509484871       0.353114669846109     
   4.80000000000000        10.7348926282594       0.361318608880360     
   4.90000000000000        10.9782827548536       0.369510715220085     
   5.00000000000000        11.2213131433606       0.377690713374873     
   5.10000000000000        11.4639756043342       0.385858327701601     
   5.20000000000000        11.7465164532954       0.395368182157882     
   5.30000000000000        11.9883537721319       0.403508023574397     
   5.40000000000000        12.2297972016995       0.411634607334074     
   5.50000000000000        12.4708385310932       0.419747657071520     
   5.60000000000000        12.7514454984706       0.429192420294212     
   5.70000000000000        12.9915875844164       0.437275202994724     
   5.80000000000000        13.2711232837954       0.446683909120590     
   5.90000000000000        13.5500635797918       0.456072574960133     
   6.00000000000000        13.7887468710208       0.464106257059832     
   6.10000000000000        14.0665465328153       0.473456531051654     
   6.20000000000000        14.3437133968985       0.482785506126323     
   6.30000000000000        14.6202343515396       0.492092740964815     
   6.40000000000000        14.8960962710894       0.501377793779632     
   6.50000000000000        15.1712860156110       0.510640222302388     
   6.60000000000000        15.4457904305486       0.519879583772634     
   6.70000000000000        15.7585797489070       0.530407551335568     
   6.80000000000000        16.0315714646241       0.539595997869172     
   6.90000000000000        16.3425978702153       0.550064628724169     
   7.00000000000000        16.6526558554476       0.560500664162613     
   7.10000000000000        16.9617256864598       0.570903439975593     
   7.20000000000000        17.2697876033053       0.581272291076219     
   7.30000000000000        17.6150646366379       0.592893741022878     
   7.40000000000000        17.9209192813209       0.603188299018320     
   7.50000000000000        18.2636633695653       0.614724494251465     
   7.60000000000000        18.6050258288544       0.626214186154819     
   7.70000000000000        18.9449783665694       0.637656422445960     
   7.80000000000000        19.3209605985547       0.650311358245412     
   7.90000000000000        19.6951290118169       0.662905243927231     
   8.00000000000000        20.0674446922731       0.675436769708182     
   8.10000000000000        20.4747572849753       0.689146233274420     
   8.20000000000000        20.9163841759707       0.704010658977064     
   8.30000000000000        21.3551596265245       0.718779109942993     
   8.40000000000000        21.7910163011416       0.733449319771575     
   8.50000000000000        22.2956595260985       0.750434770333262     
   8.60000000000000        42.2622191873773        1.42247591790362     
   8.70000000000000        42.2622608091234        1.42247731882227     
   8.80000000000000        42.2623024357829        1.42247871990631     
   8.90000000000000        42.2623440673569        1.42248012115576     
   9.00000000000000        42.2623857038461        1.42248152257065     
   9.10000000000000        42.2624273452517        1.42248292415102     
   9.20000000000000        42.2624689915744        1.42248432589689     
   9.30000000000000        42.2625106428152        1.42248572780829     
   9.40000000000000        42.2625522989750        1.42248712988526     
   9.50000000000000        42.2625939600549        1.42248853212783     
   9.60000000000000        42.2626356260556        1.42248993453602     
   9.70000000000000        42.2626772969781        1.42249133710988     
   9.80000000000000        42.2627189728234        1.42249273984943     
   9.90000000000000        42.2627606535923        1.42249414275470     
   10.0000000000000        42.2628023392859        1.42249554582573     
   10.1000000000000        42.2628440299050        1.42249694906254     
   10.2000000000000        42.2628857254506        1.42249835246516     
   10.3000000000000        42.2629274259235        1.42249975603364     
   10.4000000000000        42.2629691313248        1.42250115976799     
   10.5000000000000        42.2630108416553        1.42250256366826     
   10.6000000000000        42.2630525569160        1.42250396773447     
   10.7000000000000        42.2630942771078        1.42250537196664     
   10.8000000000000        42.2631360022317        1.42250677636483     
   10.9000000000000        42.2631777322885        1.42250818092905     
   11.0000000000000        42.2632194672793        1.42250958565933     
   11.1000000000000        42.2632612072048        1.42251099055572     
   11.2000000000000        42.2633029520661        1.42251239561823     
   11.3000000000000        42.2633447018641        1.42251380084691     
   11.4000000000000        42.2633864565997        1.42251520624177     
   11.5000000000000        42.2634282162739        1.42251661180286     
   11.6000000000000        42.2634699808875        1.42251801753020     
   11.7000000000000        42.2635117504416        1.42251942342383     
   11.8000000000000        42.2635535249370        1.42252082948378     
   11.9000000000000        42.2635953043747        1.42252223571008     
   12.0000000000000        42.2636370887555        1.42252364210275     
   12.1000000000000        42.2636788780805        1.42252504866184     
   12.2000000000000        42.2637206723506        1.42252645538737     
   12.3000000000000        42.2637624715667        1.42252786227937     
   12.4000000000000        42.2638042757296        1.42252926933788     
   12.5000000000000        42.2638460848405        1.42253067656293     
   12.6000000000000        42.2638878989001        1.42253208395454     
   12.7000000000000        42.2639297179094        1.42253349151275     
   12.8000000000000        42.2639715418695        1.42253489923760     
   12.9000000000000        42.2640133707810        1.42253630712910     
   13.0000000000000        42.2640552046451        1.42253771518730     
   13.1000000000000        42.2640970434627        1.42253912341223     
   13.2000000000000        42.2641388872346        1.42254053180391     
   13.3000000000000        42.2641807359618        1.42254194036237     
   13.4000000000000        42.2642225896453        1.42254334908766     
   13.5000000000000        42.2642644482860        1.42254475797980     
   13.6000000000000        42.2643063118847        1.42254616703881     
   13.7000000000000        42.2643481804425        1.42254757626475     
   13.8000000000000        42.2643900539603        1.42254898565762     
   13.9000000000000        42.2644319324390        1.42255039521747     
   14.0000000000000        42.2644738158795        1.42255180494433     
   14.1000000000000        42.2645157042828        1.42255321483823     
   14.2000000000000        42.2645575976498        1.42255462489920     
   14.3000000000000        42.2645994959815        1.42255603512727     
   14.4000000000000        42.2646413992787        1.42255744552247     
   14.5000000000000        42.2646833075424        1.42255885608484     
   14.6000000000000        42.2647252207736        1.42256026681440     
   14.7000000000000        42.2647671389731        1.42256167771119     
   14.8000000000000        42.2648090621420        1.42256308877524     
   14.9000000000000        42.2648509902811        1.42256450000657     
   15.0000000000000        42.2648929233913        1.42256591140523     
   15.1000000000000        42.2649348614737        1.42256732297125     
   15.2000000000000        42.2649768045291        1.42256873470464     
   15.3000000000000        42.2650187525585        1.42257014660546     
   15.4000000000000        42.2650607055629        1.42257155867372     
   15.5000000000000        42.2651026635430        1.42257297090946     
   15.6000000000000        42.2651446265000        1.42257438331270     
   15.7000000000000        42.2651865944346        1.42257579588350     
   15.8000000000000        42.2652285673479        1.42257720862186     
   15.9000000000000        42.2652705452408        1.42257862152783     
   16.0000000000000        42.2653125281143        1.42258003460143     
   16.1000000000000        42.2653545159692        1.42258144784271     
   16.2000000000000        42.2653965088064        1.42258286125168     
   16.3000000000000        42.2654385066270        1.42258427482838     
   16.4000000000000        42.2654805094319        1.42258568857284     
   16.5000000000000        42.2655225172220        1.42258710248510     
   16.6000000000000        42.2655645299982        1.42258851656518     
   16.7000000000000        42.2656065477615        1.42258993081312     
   16.8000000000000        42.2656485705128        1.42259134522895     
   16.9000000000000        42.2656905982530        1.42259275981270     
   17.0000000000000        42.2657326309832        1.42259417456440     
   17.1000000000000        42.2657746687041        1.42259558948408     
   17.2000000000000        42.2658167114168        1.42259700457177     
   17.3000000000000        42.2658587591222        1.42259841982751     
   17.4000000000000        42.2659008118212        1.42259983525133     
   17.5000000000000        42.2659428695148        1.42260125084326     
   17.6000000000000        42.2659849322039        1.42260266660332     
   17.7000000000000        42.2660269998894        1.42260408253156     
   17.8000000000000        42.2660690725723        1.42260549862800     
   17.9000000000000        42.2661111502535        1.42260691489268     
   18.0000000000000        42.2661532329340        1.42260833132562     
   18.1000000000000        42.2661953206146        1.42260974792687     
   18.2000000000000        42.2662374132964        1.42261116469644     
   18.3000000000000        42.2662795109802        1.42261258163437     
   18.4000000000000        42.2663216136671        1.42261399874069     
   18.5000000000000        42.2663637213579        1.42261541601544     
   18.6000000000000        42.2664058340536        1.42261683345865     
   18.7000000000000        42.2664479517550        1.42261825107034     
   18.8000000000000        42.2664900744633        1.42261966885055     
   18.9000000000000        42.2665322021792        1.42262108679932     
   19.0000000000000        42.2665743349038        1.42262250491666     
   19.1000000000000        42.2666164726380        1.42262392320262     
   19.2000000000000        42.2666586153826        1.42262534165723     
   19.3000000000000        42.2667007631387        1.42262676028051     
   19.4000000000000        42.2667429159072        1.42262817907250     
   19.5000000000000        42.2667850736891        1.42262959803323     
   19.6000000000000        42.2668272364852        1.42263101716273     
   19.7000000000000        42.2668694042965        1.42263243646103     
   19.8000000000000        42.2669115771239        1.42263385592818     
   19.9000000000000        42.2669537549684        1.42263527556418     
   20.0000000000000        42.2669959378310        1.42263669536909     
   20.1000000000000        42.2670381257125        1.42263811534293     
   20.2000000000000        42.2670803186140        1.42263953548572     
   20.3000000000000        42.2671225165363        1.42264095579751     
   20.4000000000000        42.2671647194803        1.42264237627833     
   20.5000000000000        42.2672069274471        1.42264379692820     
   20.6000000000000        42.2672491404376        1.42264521774717     
   20.7000000000000        42.2672913584527        1.42264663873525     
   20.8000000000000        42.2673335814933        1.42264805989248     
   20.9000000000000        42.2673758095604        1.42264948121890     
   21.0000000000000        42.2674180426550        1.42265090271453     
   21.1000000000000        42.2674602807779        1.42265232437940     
   21.2000000000000        42.2675025239302        1.42265374621356     
   21.3000000000000        42.2675447721126        1.42265516821703     
   21.4000000000000        42.2675870253263        1.42265659038983     
   21.5000000000000        42.2676292835722        1.42265801273202     
   21.6000000000000        42.2676715468511        1.42265943524360     
   21.7000000000000        42.2677138151640        1.42266085792463     
   21.8000000000000        42.2677560885119        1.42266228077512     
   21.9000000000000        42.2677983668957        1.42266370379511     
   22.0000000000000        42.2678406503164        1.42266512698463     
   22.1000000000000        42.2678829387748        1.42266655034372     
   22.2000000000000        42.2679252322720        1.42266797387240     
   22.3000000000000        42.2679675308089        1.42266939757071     
   22.4000000000000        42.2680098343863        1.42267082143868     
   22.5000000000000        42.2680521430054        1.42267224547634     
   22.6000000000000        42.2680944566669        1.42267366968373     
   22.7000000000000        42.2681367753719        1.42267509406086     
   22.8000000000000        42.2681790991213        1.42267651860778     
   22.9000000000000        42.2682214279160        1.42267794332452     
   23.0000000000000        42.2682637617570        1.42267936821111     
   23.1000000000000        42.2683061006452        1.42268079326758     
   23.2000000000000        42.2683484445816        1.42268221849396     
   23.3000000000000        42.2683907935671        1.42268364389029     
   23.4000000000000        42.2684331476026        1.42268506945659     
   23.5000000000000        42.2684755066892        1.42268649519291     
   23.6000000000000        42.2685178708277        1.42268792109926     
   23.7000000000000        42.2685602400190        1.42268934717568     
   23.8000000000000        42.2686026142642        1.42269077342221     
   23.9000000000000        42.2686449935642        1.42269219983887     
   24.0000000000000        42.2686873779199        1.42269362642570     
   24.1000000000000        42.2687297673322        1.42269505318273     
   24.2000000000000        42.2687721618022        1.42269648010999     
   24.3000000000000        42.2688145613307        1.42269790720751     
   24.4000000000000        42.2688569659187        1.42269933447532     
   24.5000000000000        42.2688993755672        1.42270076191346     
   24.6000000000000        42.2689417902770        1.42270218952196     
   24.7000000000000        42.2689842100492        1.42270361730085     
   24.8000000000000        42.2690266348847        1.42270504525016     
   24.9000000000000        42.2690690647844        1.42270647336993     
   25.0000000000000        42.2691114997493        1.42270790166018     
   25.1000000000000        42.2691539397802        1.42270933012095     
   25.2000000000000        42.2691963848783        1.42271075875226     
   25.3000000000000        42.2692388350443        1.42271218755416     
   25.4000000000000        42.2692812902794        1.42271361652667     
   25.5000000000000        42.2693237505843        1.42271504566982     
   25.6000000000000        42.2693662159600        1.42271647498365     
   25.7000000000000        42.2694086864076        1.42271790446819     
   25.8000000000000        42.2694511619279        1.42271933412347     
   25.9000000000000        42.2694936425219        1.42272076394952     
   26.0000000000000        42.2695361281905        1.42272219394637     
   26.1000000000000        42.2695786189348        1.42272362411406     
   26.2000000000000        42.2696211147555        1.42272505445262     
   26.3000000000000        42.2696636156538        1.42272648496208     
   26.4000000000000        42.2697061216304        1.42272791564247     
   26.5000000000000        42.2697486326864        1.42272934649382     
   26.6000000000000        42.2697911488228        1.42273077751616     
   26.7000000000000        42.2698336700404        1.42273220870954     
   26.8000000000000        42.2698761963403        1.42273364007397     
   26.9000000000000        42.2699187277233        1.42273507160950     
   27.0000000000000        42.2699612641905        1.42273650331614     
   27.1000000000000        42.2700038057427        1.42273793519395     
   27.2000000000000        42.2700463523809        1.42273936724293     
