 # applied field (T), theta (degree), phi (degree), abs for RE 1-2
     0.00000   180.00000   360.00000     3.56511     0.00000     0.00000     0.00000
     0.10000   178.80085   180.00000     3.56506     0.00000     0.00000     0.00000
     0.20000   177.65608   180.00000     3.56490     0.00000     0.00000     0.00000
     0.30000   176.45644   180.00000     3.56462     0.00000     0.00000     0.00000
     0.40000   175.25632   180.00000     3.56424     0.00000     0.00000     0.00000
     0.50000   174.05555   180.00000     3.56374     0.00000     0.00000     0.00000
     0.60000   172.85397   180.00000     3.56314     0.00000     0.00000     0.00000
     0.70000   171.65142   180.00000     3.56243     0.00000     0.00000     0.00000
     0.80000   170.44774   180.00000     3.56162     0.00000     0.00000     0.00000
     0.90000   169.18797   180.00000     3.56066     0.00000     0.00000     0.00000
     1.00000   167.92665   180.00000     3.55960     0.00000     0.00000     0.00000
     1.10000   166.66362   180.00000     3.55843     0.00000     0.00000     0.00000
     1.20000   165.39874   180.00000     3.55717     0.00000     0.00000     0.00000
     1.30000   164.07669   180.00000     3.55575     0.00000     0.00000     0.00000
     1.40000   162.75231   180.00000     3.55423     0.00000     0.00000     0.00000
     1.50000   161.42547   180.00000     3.55263     0.00000     0.00000     0.00000
     1.60000   160.04054   180.00000     3.55086     0.00000     0.00000     0.00000
     1.70000   158.59704   180.00000     3.54894     0.00000     0.00000     0.00000
     1.80000   157.15022   180.00000     3.54693     0.00000     0.00000     0.00000
     1.90000   155.64406   180.00000     3.54477     0.00000     0.00000     0.00000
     2.00000   154.07805   180.00000     3.54245     0.00000     0.00000     0.00000
     2.10000   152.50782   180.00000     3.54007     0.00000     0.00000     0.00000
     2.20000   150.82060   180.00000     3.53746     0.00000     0.00000     0.00000
     2.30000   149.12838   180.00000     3.53480     0.00000     0.00000     0.00000
     2.40000   147.31776   180.00000     3.53193     0.00000     0.00000     0.00000
     2.50000   145.38765   180.00000     3.52886     0.00000     0.00000     0.00000
     2.60000   143.39405   180.00000     3.52569     0.00000     0.00000     0.00000
     2.70000   141.22192   180.00000     3.52227     0.00000     0.00000     0.00000
     2.80000   138.92710   180.00000     3.51872     0.00000     0.00000     0.00000
     2.90000   136.45092   180.00000     3.51498     0.00000     0.00000     0.00000
     3.00000   133.67603   180.00000     3.51095     0.00000     0.00000     0.00000
     3.10000   130.65792   180.00000     3.50679     0.00000     0.00000     0.00000
     3.20000   127.16132   180.00000     3.50230     0.00000     0.00000     0.00000
     3.30000   123.06500   180.00000     3.49754     0.00000     0.00000     0.00000
     3.40000   118.01139   180.00000     3.49248     0.00000     0.00000     0.00000
     3.50000   111.10763   180.00000     3.48701     0.00000     0.00000     0.00000
     3.60000    97.53888   180.00000     3.48100     0.00000     0.00000     0.00000
     3.70000    90.00000   180.00000     3.48014     0.00000     0.00000     0.00000
     3.80000    90.00000   180.00000     3.48013     0.00000     0.00000     0.00000
     3.90000    90.00000   180.00000     3.48012     0.00000     0.00000     0.00000
     4.00000    90.00000   180.00000     3.48011     0.00000     0.00000     0.00000
     4.10000    90.00000   180.00000     3.48010     0.00000     0.00000     0.00000
     4.20000    90.00000   180.00000     3.48009     0.00000     0.00000     0.00000
     4.30000    90.00000   180.00000     3.48008     0.00000     0.00000     0.00000
     4.40000    90.00000   180.00000     3.48007     0.00000     0.00000     0.00000
     4.50000    90.00000   180.00000     3.48006     0.00000     0.00000     0.00000
     4.60000    90.00000   180.00000     3.48005     0.00000     0.00000     0.00000
     4.70000    90.00000   180.00000     3.48004     0.00000     0.00000     0.00000
     4.80000    90.00000   180.00000     3.48003     0.00000     0.00000     0.00000
     4.90000    90.00000   180.00000     3.48002     0.00000     0.00000     0.00000
     5.00000    90.00000   180.00000     3.48001     0.00000     0.00000     0.00000
     5.10000    90.00000   180.00000     3.48000     0.00000     0.00000     0.00000
     5.20000    90.00000   180.00000     3.47999     0.00000     0.00000     0.00000
     5.30000    90.00000   180.00000     3.47998     0.00000     0.00000     0.00000
     5.40000    90.00000   180.00000     3.47997     0.00000     0.00000     0.00000
     5.50000    90.00000   180.00000     3.47996     0.00000     0.00000     0.00000
     5.60000    90.00000   180.00000     3.47995     0.00000     0.00000     0.00000
     5.70000    90.00000   180.00000     3.47994     0.00000     0.00000     0.00000
     5.80000    90.00000   180.00000     3.47993     0.00000     0.00000     0.00000
     5.90000    90.00000   180.00000     3.47992     0.00000     0.00000     0.00000
     6.00000    90.00000   180.00000     3.47991     0.00000     0.00000     0.00000
     6.10000    90.00000   180.00000     3.47990     0.00000     0.00000     0.00000
     6.20000    90.00000   180.00000     3.47989     0.00000     0.00000     0.00000
     6.30000    90.00000   180.00000     3.47988     0.00000     0.00000     0.00000
     6.40000    90.00000   180.00000     3.47987     0.00000     0.00000     0.00000
     6.50000    90.00000   180.00000     3.47986     0.00000     0.00000     0.00000
     6.60000    90.00000   180.00000     3.47985     0.00000     0.00000     0.00000
     6.70000    90.00000   180.00000     3.47984     0.00000     0.00000     0.00000
     6.80000    90.00000   180.00000     3.47983     0.00000     0.00000     0.00000
     6.90000    90.00000   180.00000     3.47982     0.00000     0.00000     0.00000
     7.00000    90.00000   180.00000     3.47981     0.00000     0.00000     0.00000
     7.10000    90.00000   180.00000     3.47980     0.00000     0.00000     0.00000
     7.20000    90.00000   180.00000     3.47979     0.00000     0.00000     0.00000
     7.30000    90.00000   180.00000     3.47978     0.00000     0.00000     0.00000
     7.40000    90.00000   180.00000     3.47977     0.00000     0.00000     0.00000
     7.50000    90.00000   180.00000     3.47976     0.00000     0.00000     0.00000
     7.60000    90.00000   180.00000     3.47975     0.00000     0.00000     0.00000
     7.70000    90.00000   180.00000     3.47974     0.00000     0.00000     0.00000
     7.80000    90.00000   180.00000     3.47973     0.00000     0.00000     0.00000
     7.90000    90.00000   180.00000     3.47972     0.00000     0.00000     0.00000
     8.00000    90.00000   180.00000     3.47971     0.00000     0.00000     0.00000
     8.10000    90.00000   180.00000     3.47970     0.00000     0.00000     0.00000
     8.20000    90.00000   180.00000     3.47969     0.00000     0.00000     0.00000
     8.30000    90.00000   180.00000     3.47968     0.00000     0.00000     0.00000
     8.40000    90.00000   180.00000     3.47967     0.00000     0.00000     0.00000
     8.50000    90.00000   180.00000     3.47966     0.00000     0.00000     0.00000
     8.60000    90.00000   180.00000     3.47965     0.00000     0.00000     0.00000
     8.70000    90.00000   180.00000     3.47964     0.00000     0.00000     0.00000
     8.80000    90.00000   180.00000     3.47963     0.00000     0.00000     0.00000
     8.90000    90.00000   180.00000     3.47962     0.00000     0.00000     0.00000
     9.00000    90.00000   180.00000     3.47960     0.00000     0.00000     0.00000
     9.10000    90.00000   180.00000     3.47959     0.00000     0.00000     0.00000
     9.20000    90.00000   180.00000     3.47958     0.00000     0.00000     0.00000
     9.30000    90.00000   180.00000     3.47957     0.00000     0.00000     0.00000
     9.40000    90.00000   180.00000     3.47956     0.00000     0.00000     0.00000
     9.50000    90.00000   180.00000     3.47955     0.00000     0.00000     0.00000
     9.60000    90.00000   180.00000     3.47954     0.00000     0.00000     0.00000
     9.70000    90.00000   180.00000     3.47953     0.00000     0.00000     0.00000
     9.80000    90.00000   180.00000     3.47952     0.00000     0.00000     0.00000
     9.90000    90.00000   180.00000     3.47951     0.00000     0.00000     0.00000
    10.00000    90.00000   180.00000     3.47950     0.00000     0.00000     0.00000
    10.10000    90.00000   180.00000     3.47949     0.00000     0.00000     0.00000
    10.20000    90.00000   180.00000     3.47948     0.00000     0.00000     0.00000
    10.30000    90.00000   180.00000     3.47947     0.00000     0.00000     0.00000
    10.40000    90.00000   180.00000     3.47945     0.00000     0.00000     0.00000
    10.50000    90.00000   180.00000     3.47944     0.00000     0.00000     0.00000
    10.60000    90.00000   180.00000     3.47943     0.00000     0.00000     0.00000
    10.70000    90.00000   180.00000     3.47942     0.00000     0.00000     0.00000
    10.80000    90.00000   180.00000     3.47941     0.00000     0.00000     0.00000
    10.90000    90.00000   180.00000     3.47940     0.00000     0.00000     0.00000
    11.00000    90.00000   180.00000     3.47939     0.00000     0.00000     0.00000
    11.10000    90.00000   180.00000     3.47938     0.00000     0.00000     0.00000
    11.20000    90.00000   180.00000     3.47937     0.00000     0.00000     0.00000
    11.30000    90.00000   180.00000     3.47936     0.00000     0.00000     0.00000
    11.40000    90.00000   180.00000     3.47935     0.00000     0.00000     0.00000
    11.50000    90.00000   180.00000     3.47933     0.00000     0.00000     0.00000
    11.60000    90.00000   180.00000     3.47932     0.00000     0.00000     0.00000
    11.70000    90.00000   180.00000     3.47931     0.00000     0.00000     0.00000
    11.80000    90.00000   180.00000     3.47930     0.00000     0.00000     0.00000
    11.90000    90.00000   180.00000     3.47929     0.00000     0.00000     0.00000
    12.00000    90.00000   180.00000     3.47928     0.00000     0.00000     0.00000
    12.10000    90.00000   180.00000     3.47927     0.00000     0.00000     0.00000
    12.20000    90.00000   180.00000     3.47926     0.00000     0.00000     0.00000
    12.30000    90.00000   180.00000     3.47925     0.00000     0.00000     0.00000
    12.40000    90.00000   180.00000     3.47923     0.00000     0.00000     0.00000
    12.50000    90.00000   180.00000     3.47922     0.00000     0.00000     0.00000
    12.60000    90.00000   180.00000     3.47921     0.00000     0.00000     0.00000
    12.70000    90.00000   180.00000     3.47920     0.00000     0.00000     0.00000
    12.80000    90.00000   180.00000     3.47919     0.00000     0.00000     0.00000
    12.90000    90.00000   180.00000     3.47918     0.00000     0.00000     0.00000
    13.00000    90.00000   180.00000     3.47917     0.00000     0.00000     0.00000
    13.10000    90.00000   180.00000     3.47915     0.00000     0.00000     0.00000
    13.20000    90.00000   180.00000     3.47914     0.00000     0.00000     0.00000
    13.30000    90.00000   180.00000     3.47913     0.00000     0.00000     0.00000
    13.40000    90.00000   180.00000     3.47912     0.00000     0.00000     0.00000
    13.50000    90.00000   180.00000     3.47911     0.00000     0.00000     0.00000
    13.60000    90.00000   180.00000     3.47910     0.00000     0.00000     0.00000
    13.70000    90.00000   180.00000     3.47909     0.00000     0.00000     0.00000
    13.80000    90.00000   180.00000     3.47907     0.00000     0.00000     0.00000
    13.90000    90.00000   180.00000     3.47906     0.00000     0.00000     0.00000
    14.00000    90.00000   180.00000     3.47905     0.00000     0.00000     0.00000
    14.10000    90.00000   180.00000     3.47904     0.00000     0.00000     0.00000
    14.20000    90.00000   180.00000     3.47903     0.00000     0.00000     0.00000
    14.30000    90.00000   180.00000     3.47902     0.00000     0.00000     0.00000
    14.40000    90.00000   180.00000     3.47901     0.00000     0.00000     0.00000
    14.50000    90.00000   180.00000     3.47899     0.00000     0.00000     0.00000
    14.60000    90.00000   180.00000     3.47898     0.00000     0.00000     0.00000
    14.70000    90.00000   180.00000     3.47897     0.00000     0.00000     0.00000
    14.80000    90.00000   180.00000     3.47896     0.00000     0.00000     0.00000
    14.90000    90.00000   180.00000     3.47895     0.00000     0.00000     0.00000
    15.00000    90.00000   180.00000     3.47893     0.00000     0.00000     0.00000
    15.10000    90.00000   180.00000     3.47892     0.00000     0.00000     0.00000
    15.20000    90.00000   180.00000     3.47891     0.00000     0.00000     0.00000
    15.30000    90.00000   180.00000     3.47890     0.00000     0.00000     0.00000
    15.40000    90.00000   180.00000     3.47889     0.00000     0.00000     0.00000
    15.50000    90.00000   180.00000     3.47888     0.00000     0.00000     0.00000
    15.60000    90.00000   180.00000     3.47886     0.00000     0.00000     0.00000
    15.70000    90.00000   180.00000     3.47885     0.00000     0.00000     0.00000
    15.80000    90.00000   180.00000     3.47884     0.00000     0.00000     0.00000
    15.90000    90.00000   180.00000     3.47883     0.00000     0.00000     0.00000
    16.00000    90.00000   180.00000     3.47882     0.00000     0.00000     0.00000
    16.10000    90.00000   180.00000     3.47880     0.00000     0.00000     0.00000
    16.20000    90.00000   180.00000     3.47879     0.00000     0.00000     0.00000
    16.30000    90.00000   180.00000     3.47878     0.00000     0.00000     0.00000
    16.40000    90.00000   180.00000     3.47877     0.00000     0.00000     0.00000
    16.50000    90.00000   180.00000     3.47876     0.00000     0.00000     0.00000
    16.60000    90.00000   180.00000     3.47874     0.00000     0.00000     0.00000
    16.70000    90.00000   180.00000     3.47873     0.00000     0.00000     0.00000
    16.80000    90.00000   180.00000     3.47872     0.00000     0.00000     0.00000
    16.90000    90.00000   180.00000     3.47871     0.00000     0.00000     0.00000
    17.00000    90.00000   180.00000     3.47870     0.00000     0.00000     0.00000
    17.10000    90.00000   180.00000     3.47868     0.00000     0.00000     0.00000
    17.20000    90.00000   180.00000     3.47867     0.00000     0.00000     0.00000
    17.30000    90.00000   180.00000     3.47866     0.00000     0.00000     0.00000
    17.40000    90.00000   180.00000     3.47865     0.00000     0.00000     0.00000
    17.50000    90.00000   180.00000     3.47863     0.00000     0.00000     0.00000
    17.60000    90.00000   180.00000     3.47862     0.00000     0.00000     0.00000
    17.70000    90.00000   180.00000     3.47861     0.00000     0.00000     0.00000
    17.80000    90.00000   180.00000     3.47860     0.00000     0.00000     0.00000
    17.90000    90.00000   180.00000     3.47859     0.00000     0.00000     0.00000
    18.00000    90.00000   180.00000     3.47857     0.00000     0.00000     0.00000
    18.10000    90.00000   180.00000     3.47856     0.00000     0.00000     0.00000
    18.20000    90.00000   180.00000     3.47855     0.00000     0.00000     0.00000
    18.30000    90.00000   180.00000     3.47854     0.00000     0.00000     0.00000
    18.40000    90.00000   180.00000     3.47852     0.00000     0.00000     0.00000
    18.50000    90.00000   180.00000     3.47851     0.00000     0.00000     0.00000
    18.60000    90.00000   180.00000     3.47850     0.00000     0.00000     0.00000
    18.70000    90.00000   180.00000     3.47849     0.00000     0.00000     0.00000
    18.80000    90.00000   180.00000     3.47847     0.00000     0.00000     0.00000
    18.90000    90.00000   180.00000     3.47846     0.00000     0.00000     0.00000
    19.00000    90.00000   180.00000     3.47845     0.00000     0.00000     0.00000
    19.10000    90.00000   180.00000     3.47844     0.00000     0.00000     0.00000
    19.20000    90.00000   180.00000     3.47842     0.00000     0.00000     0.00000
    19.30000    90.00000   180.00000     3.47841     0.00000     0.00000     0.00000
    19.40000    90.00000   180.00000     3.47840     0.00000     0.00000     0.00000
    19.50000    90.00000   180.00000     3.47839     0.00000     0.00000     0.00000
    19.60000    90.00000   180.00000     3.47837     0.00000     0.00000     0.00000
    19.70000    90.00000   180.00000     3.47836     0.00000     0.00000     0.00000
    19.80000    90.00000   180.00000     3.47835     0.00000     0.00000     0.00000
    19.90000    90.00000   180.00000     3.47833     0.00000     0.00000     0.00000
    20.00000    90.00000   180.00000     3.47832     0.00000     0.00000     0.00000
    20.10000    90.00000   180.00000     3.47831     0.00000     0.00000     0.00000
    20.20000    90.00000   180.00000     3.47830     0.00000     0.00000     0.00000
    20.30000    90.00000   180.00000     3.47828     0.00000     0.00000     0.00000
    20.40000    90.00000   180.00000     3.47827     0.00000     0.00000     0.00000
    20.50000    90.00000   180.00000     3.47826     0.00000     0.00000     0.00000
    20.60000    90.00000   180.00000     3.47824     0.00000     0.00000     0.00000
    20.70000    90.00000   180.00000     3.47823     0.00000     0.00000     0.00000
    20.80000    90.00000   180.00000     3.47822     0.00000     0.00000     0.00000
    20.90000    90.00000   180.00000     3.47821     0.00000     0.00000     0.00000
    21.00000    90.00000   180.00000     3.47819     0.00000     0.00000     0.00000
    21.10000    90.00000   180.00000     3.47818     0.00000     0.00000     0.00000
    21.20000    90.00000   180.00000     3.47817     0.00000     0.00000     0.00000
    21.30000    90.00000   180.00000     3.47815     0.00000     0.00000     0.00000
    21.40000    90.00000   180.00000     3.47814     0.00000     0.00000     0.00000
    21.50000    90.00000   180.00000     3.47813     0.00000     0.00000     0.00000
    21.60000    90.00000   180.00000     3.47811     0.00000     0.00000     0.00000
    21.70000    90.00000   180.00000     3.47810     0.00000     0.00000     0.00000
    21.80000    90.00000   180.00000     3.47809     0.00000     0.00000     0.00000
    21.90000    90.00000   180.00000     3.47808     0.00000     0.00000     0.00000
    22.00000    90.00000   180.00000     3.47806     0.00000     0.00000     0.00000
    22.10000    90.00000   180.00000     3.47805     0.00000     0.00000     0.00000
    22.20000    90.00000   180.00000     3.47804     0.00000     0.00000     0.00000
    22.30000    90.00000   180.00000     3.47802     0.00000     0.00000     0.00000
    22.40000    90.00000   180.00000     3.47801     0.00000     0.00000     0.00000
    22.50000    90.00000   180.00000     3.47800     0.00000     0.00000     0.00000
    22.60000    90.00000   180.00000     3.47798     0.00000     0.00000     0.00000
    22.70000    90.00000   180.00000     3.47797     0.00000     0.00000     0.00000
    22.80000    90.00000   180.00000     3.47796     0.00000     0.00000     0.00000
    22.90000    90.00000   180.00000     3.47794     0.00000     0.00000     0.00000
    23.00000    90.00000   180.00000     3.47793     0.00000     0.00000     0.00000
    23.10000    90.00000   180.00000     3.47792     0.00000     0.00000     0.00000
    23.20000    90.00000   180.00000     3.47790     0.00000     0.00000     0.00000
    23.30000    90.00000   180.00000     3.47789     0.00000     0.00000     0.00000
