 # applied field (T), magnetization (2 f.u.), magnetization (T)
  0.000000000000000E+000  3.261100212366356E-015  1.135605229797971E-016
  0.100000000000000       0.368919234726459       1.284678743510404E-002
  0.200000000000000       0.774641901046782       2.697517208191034E-002
  0.300000000000000        1.14344223887462       3.981781919837702E-002
  0.400000000000000        1.51212934802494       5.265652337933156E-002
  0.500000000000000        1.88066671849092       6.549001324542400E-002
  0.600000000000000        2.28579647896678       7.959775127195168E-002
  0.700000000000000        2.65390064290725       9.241615568945601E-002
  0.800000000000000        3.02174199146367       0.105225408148873     
  0.900000000000000        3.38928409157031       0.118024239950156     
   1.00000000000000        3.79314658086572       0.132087848091480     
   1.10000000000000        4.15994182716528       0.144860672378918     
   1.20000000000000        4.56289467196443       0.158892604184652     
   1.30000000000000        4.92878283116097       0.171633841192000     
   1.40000000000000        5.29418280973303       0.184358078400687     
   1.50000000000000        5.69547118249164       0.198332048689417     
   1.60000000000000        6.05972822051712       0.211016485549219     
   1.70000000000000        6.45967182472071       0.224943627279963     
   1.80000000000000        6.82262670852243       0.237582719530576     
   1.90000000000000        7.22105070123641       0.251456944189090     
   2.00000000000000        7.58254474078181       0.264045165804969     
   2.10000000000000        7.97927489032008       0.277860406162371     
   2.20000000000000        8.37504851466899       0.291642337668873     
   2.30000000000000        8.73401274007244       0.304142464163997     
   2.40000000000000        9.12782836335300       0.317856212661441     
   2.50000000000000        9.52054955972799       0.331531850189070     
   2.60000000000000        9.91212915671601       0.345167734070698     
   2.70000000000000        10.3025201082613       0.358762226032628     
   2.80000000000000        10.6916755000252       0.372313692387920     
   2.90000000000000        11.0795485546735       0.385820504220502     
   3.00000000000000        11.4660926371591       0.399281037569142     
   3.10000000000000        11.8512612600009       0.412693673611255     
   3.20000000000000        12.2350080885575       0.426056798846556     
   3.30000000000000        12.6172869462958       0.439368805280538     
   3.40000000000000        13.0325510677065       0.453829449765894     
   3.50000000000000        13.4116121472696       0.467029404269971     
   3.60000000000000        13.8232571041468       0.481364019443003     
   3.70000000000000        14.1989008260692       0.494444972108556     
   3.80000000000000        14.6067098033131       0.508646007868224     
   3.90000000000000        15.0124320106156       0.522774376530762     
   4.00000000000000        15.4160092172818       0.536828050342425     
   4.10000000000000        15.8173834784475       0.550805011502882     
   4.20000000000000        16.2164971431304       0.564703252445587     
   4.30000000000000        16.6132928622704       0.578520776117755     
   4.40000000000000        17.0077135967581       0.592255596259942     
   4.50000000000000        17.4322223105455       0.607038163003633     
   4.60000000000000        17.8215134954902       0.620594358052810     
   4.70000000000000        18.2403333455618       0.635178822838067     
   4.80000000000000        18.6560913970510       0.649656667333964     
   4.90000000000000        19.0687173547896       0.664025443668449     
   5.00000000000000        19.4781414189014       0.678282721216910     
   5.10000000000000        19.8842942966216       0.692426087013750     
   5.20000000000000        20.3179216363045       0.707526189514740     
   5.30000000000000        20.7170615204919       0.721425343493062     
   5.40000000000000        21.1429789252936       0.736256964751453     
   5.50000000000000        21.5947158925437       0.751987694538812     
   5.60000000000000        22.0120056643072       0.766518877768288     
   5.70000000000000        22.4250036683333       0.780900609782829     
   5.80000000000000        22.8626188094210       0.796139578550899     
   5.90000000000000        23.2951150597145       0.811200293393050     
   6.00000000000000        23.7506663482522       0.827063848390313     
   6.10000000000000        24.2001649211740       0.842716631100303     
   6.20000000000000        24.6434947901628       0.858154602489231     
   6.30000000000000        25.0805414795534       0.873373776198024     
   6.40000000000000        25.5378695307047       0.889299202980413     
   6.50000000000000        25.9878438471754       0.904968552395717     
   6.60000000000000        26.4561043230001       0.921274676422134     
   6.70000000000000        26.9158200029673       0.937283247039226     
   6.80000000000000        27.3668400880994       0.952989013009795     
   6.90000000000000        27.8575553610955       0.970077075138120     
   7.00000000000000        28.3371543201806       0.986778036490898     
   7.10000000000000        28.8054422563917        1.00308511676387     
   7.20000000000000        29.2847456560345        1.01977578591995     
   7.30000000000000        29.7948614707010        1.03753942853177     
   7.40000000000000        30.2892357497897        1.05475490736562     
   7.50000000000000        30.7880189514413        1.07212391706925     
   7.60000000000000        31.3083314050821        1.09024263483336     
   7.70000000000000        31.8262446966587        1.10827780714318     
   7.80000000000000        32.3566445195272        1.12674779498500     
   7.90000000000000        32.8934882882436        1.14544217883211     
   8.00000000000000        33.4458628082317        1.16467738636504     
   8.10000000000000        34.0029505633603        1.18407672177281     
   8.20000000000000        34.5657517893964        1.20367501602945     
   8.30000000000000        35.1505599310225        1.22403965191339     
   8.40000000000000        35.7487407922820        1.24486996285678     
   8.50000000000000        36.3562209978153        1.26602410267090     
   8.60000000000000        36.9290363173401        1.28597111534147     
   8.70000000000000        36.9293143644622        1.28598079771077     
   8.80000000000000        36.9295923897985        1.28599047932144     
   8.90000000000000        36.9298703933579        1.28600016017377     
   9.00000000000000        36.9301483751491        1.28600984026807     
   9.10000000000000        36.9304263351810        1.28601951960466     
   9.20000000000000        36.9307042734624        1.28602919818383     
   9.30000000000000        36.9309821900021        1.28603887600589     
   9.40000000000000        36.9312600848089        1.28604855307116     
   9.50000000000000        36.9315379578917        1.28605822937993     
   9.60000000000000        36.9318158092591        1.28606790493252     
   9.70000000000000        36.9320936389202        1.28607757972924     
   9.80000000000000        36.9323714468837        1.28608725377038     
   9.90000000000000        36.9326492331584        1.28609692705625     
   10.0000000000000        36.9329269977531        1.28610659958718     
   10.1000000000000        36.9332047406766        1.28611627136345     
   10.2000000000000        36.9334824619378        1.28612594238538     
   10.3000000000000        36.9337601615455        1.28613561265327     
   10.4000000000000        36.9340378395085        1.28614528216743     
   10.5000000000000        36.9343154958357        1.28615495092818     
   10.6000000000000        36.9345931305358        1.28616461893581     
   10.7000000000000        36.9348707436177        1.28617428619064     
   10.8000000000000        36.9351483350901        1.28618395269296     
   10.9000000000000        36.9354259049620        1.28619361844310     
   11.0000000000000        36.9357034532422        1.28620328344135     
   11.1000000000000        36.9359809799395        1.28621294768802     
   11.2000000000000        36.9362584850627        1.28622261118343     
   11.3000000000000        36.9365359686206        1.28623227392787     
   11.4000000000000        36.9368134306221        1.28624193592166     
   11.5000000000000        36.9370908710759        1.28625159716510     
   11.6000000000000        36.9373682899911        1.28626125765850     
   11.7000000000000        36.9376456873762        1.28627091740217     
   11.8000000000000        36.9379230632403        1.28628057639642     
   11.9000000000000        36.9382004175921        1.28629023464155     
   12.0000000000000        36.9384777504405        1.28629989213787     
   12.1000000000000        36.9387550617943        1.28630954888569     
   12.2000000000000        36.9390323516623        1.28631920488531     
   12.3000000000000        36.9393096200534        1.28632886013705     
   12.4000000000000        36.9395868669764        1.28633851464121     
   12.5000000000000        36.9398640924401        1.28634816839810     
   12.6000000000000        36.9401412964534        1.28635782140803     
   12.7000000000000        36.9404184790252        1.28636747367130     
   12.8000000000000        36.9406956401642        1.28637712518823     
   12.9000000000000        36.9409727798793        1.28638677595912     
   13.0000000000000        36.9412498981793        1.28639642598427     
   13.1000000000000        36.9415269950732        1.28640607526400     
   13.2000000000000        36.9418040705696        1.28641572379862     
   13.3000000000000        36.9420811246776        1.28642537158842     
   13.4000000000000        36.9423581574058        1.28643501863373     
   13.5000000000000        36.9426351687632        1.28644466493485     
   13.6000000000000        36.9429121587586        1.28645431049208     
   13.7000000000000        36.9431891274009        1.28646395530574     
   13.8000000000000        36.9434660746989        1.28647359937613     
   13.9000000000000        36.9437430006614        1.28648324270356     
   14.0000000000000        36.9440199052973        1.28649288528833     
   14.1000000000000        36.9442967886154        1.28650252713077     
   14.2000000000000        36.9445736506247        1.28651216823117     
   14.3000000000000        36.9448504913338        1.28652180858984     
   14.4000000000000        36.9451273107518        1.28653144820710     
   14.5000000000000        36.9454041088875        1.28654108708324     
   14.6000000000000        36.9456808857496        1.28655072521859     
   14.7000000000000        36.9459576413471        1.28656036261343     
   14.8000000000000        36.9462343756888        1.28656999926810     
   14.9000000000000        36.9465110887835        1.28657963518288     
   15.0000000000000        36.9467877806402        1.28658927035810     
   15.1000000000000        36.9470644512677        1.28659890479406     
   15.2000000000000        36.9473411006747        1.28660853849106     
   15.3000000000000        36.9476177288703        1.28661817144943     
   15.4000000000000        36.9478943358632        1.28662780366945     
   15.5000000000000        36.9481709216624        1.28663743515145     
   15.6000000000000        36.9484474862765        1.28664706589574     
   15.7000000000000        36.9487240297147        1.28665669590261     
   15.8000000000000        36.9490005519856        1.28666632517238     
   15.9000000000000        36.9492770530981        1.28667595370536     
   16.0000000000000        36.9495535330612        1.28668558150186     
   16.1000000000000        36.9498299918837        1.28669520856218     
   16.2000000000000        36.9501064295744        1.28670483488664     
   16.3000000000000        36.9503828461422        1.28671446047554     
   16.4000000000000        36.9506592415960        1.28672408532919     
   16.5000000000000        36.9509356159446        1.28673370944789     
   16.6000000000000        36.9512119691969        1.28674333283197     
   16.7000000000000        36.9514883013618        1.28675295548173     
   16.8000000000000        36.9517646124481        1.28676257739747     
   16.9000000000000        36.9520409024648        1.28677219857951     
   17.0000000000000        36.9523171714206        1.28678181902815     
   17.1000000000000        36.9525934193245        1.28679143874370     
   17.2000000000000        36.9528696461853        1.28680105772648     
   17.3000000000000        36.9531458520119        1.28681067597679     
   17.4000000000000        36.9534220368132        1.28682029349493     
   17.5000000000000        36.9536982005980        1.28682991028123     
   17.6000000000000        36.9539743433752        1.28683952633598     
   17.7000000000000        36.9542504651537        1.28684914165950     
   17.8000000000000        36.9545265659424        1.28685875625210     
   17.9000000000000        36.9548026457501        1.28686837011408     
   18.0000000000000        36.9550787045858        1.28687798324576     
   18.1000000000000        36.9553547424582        1.28688759564744     
   18.2000000000000        36.9556307593764        1.28689720731943     
   18.3000000000000        36.9559067553490        1.28690681826204     
   18.4000000000000        36.9561827303851        1.28691642847558     
   18.5000000000000        36.9564586844936        1.28692603796037     
   18.6000000000000        36.9567346176832        1.28693564671670     
   18.7000000000000        36.9570105299629        1.28694525474490     
   18.8000000000000        36.9572864213415        1.28695486204526     
   18.9000000000000        36.9575622918280        1.28696446861809     
   19.0000000000000        36.9578381414313        1.28697407446372     
   19.1000000000000        36.9581139701601        1.28698367958244     
   19.2000000000000        36.9583897780235        1.28699328397457     
   19.3000000000000        36.9586655650302        1.28700288764041     
   19.4000000000000        36.9589413311892        1.28701249058027     
   19.5000000000000        36.9592170765093        1.28702209279447     
   19.6000000000000        36.9594928009996        1.28703169428332     
   19.7000000000000        36.9597685046687        1.28704129504711     
   19.8000000000000        36.9600441875257        1.28705089508617     
   19.9000000000000        36.9603198495794        1.28706049440080     
   20.0000000000000        36.9605954908387        1.28707009299132     
   20.1000000000000        36.9608711113125        1.28707969085802     
   20.2000000000000        36.9611467110096        1.28708928800123     
   20.3000000000000        36.9614222899391        1.28709888442124     
   20.4000000000000        36.9616978481098        1.28710848011838     
   20.5000000000000        36.9619733855305        1.28711807509295     
   20.6000000000000        36.9622489022102        1.28712766934526     
   20.7000000000000        36.9625243981578        1.28713726287561     
   20.8000000000000        36.9627998733821        1.28714685568433     
   20.9000000000000        36.9630753278921        1.28715644777171     
   21.0000000000000        36.9633507616966        1.28716603913808     
   21.1000000000000        36.9636261748046        1.28717562978373     
   21.2000000000000        36.9639015672250        1.28718521970899     
   21.3000000000000        36.9641769389666        1.28719480891415     
   21.4000000000000        36.9644522900384        1.28720439739953     
   21.5000000000000        36.9647276204492        1.28721398516544     
   21.6000000000000        36.9650029302080        1.28722357221219     
   21.7000000000000        36.9652782193236        1.28723315854009     
   21.8000000000000        36.9655534878050        1.28724274414944     
   21.9000000000000        36.9658287356611        1.28725232904057     
   22.0000000000000        36.9661039629008        1.28726191321378     
   22.1000000000000        36.9663791695330        1.28727149666937     
   22.2000000000000        36.9666543555665        1.28728107940766     
   22.3000000000000        36.9669295210103        1.28729066142897     
   22.4000000000000        36.9672046658734        1.28730024273359     
   22.5000000000000        36.9674797901645        1.28730982332184     
   22.6000000000000        36.9677548938927        1.28731940319404     
   22.7000000000000        36.9680299770668        1.28732898235048     
   22.8000000000000        36.9683050396957        1.28733856079149     
   22.9000000000000        36.9685800817884        1.28734813851736     
   23.0000000000000        36.9688551033538        1.28735771552842     
   23.1000000000000        36.9691301044008        1.28736729182497     
   23.2000000000000        36.9694050849382        1.28737686740732     
   23.3000000000000        36.9696800449750        1.28738644227579     
   23.4000000000000        36.9699549845202        1.28739601643067     
   23.5000000000000        36.9702299035826        1.28740558987230     
   23.6000000000000        36.9705048021711        1.28741516260096     
   23.7000000000000        36.9707796802948        1.28742473461698     
   23.8000000000000        36.9710545379624        1.28743430592066     
   23.9000000000000        36.9713293751829        1.28744387651232     
   24.0000000000000        36.9716041919652        1.28745344639227     
   24.1000000000000        36.9718789883183        1.28746301556081     
   24.2000000000000        36.9721537642511        1.28747258401827     
   24.3000000000000        36.9724285197724        1.28748215176493     
   24.4000000000000        36.9727032548912        1.28749171880113     
   24.5000000000000        36.9729779696165        1.28750128512717     
   24.6000000000000        36.9732526639571        1.28751085074336     
   24.7000000000000        36.9735273379220        1.28752041565000     
   24.8000000000000        36.9738019915201        1.28752997984742     
   24.9000000000000        36.9740766247603        1.28753954333593     
   25.0000000000000        36.9743512376516        1.28754910611582     
   25.1000000000000        36.9746258302028        1.28755866818742     
   25.2000000000000        36.9749004024229        1.28756822955104     
   25.3000000000000        36.9751749543209        1.28757779020698     
   25.4000000000000        36.9754494859057        1.28758735015556     
   25.5000000000000        36.9757239971861        1.28759690939708     
   25.6000000000000        36.9759984881711        1.28760646793187     
   25.7000000000000        36.9762729588697        1.28761602576022     
   25.8000000000000        36.9765474092908        1.28762558288245     
   25.9000000000000        36.9768218394433        1.28763513929888     
   26.0000000000000        36.9770962493361        1.28764469500981     
   26.1000000000000        36.9773706389782        1.28765425001555     
   26.2000000000000        36.9776450083785        1.28766380431642     
   26.3000000000000        36.9779193575460        1.28767335791273     
   26.4000000000000        36.9781936864896        1.28768291080478     
   26.5000000000000        36.9784679952182        1.28769246299289     
   26.6000000000000        36.9787422837407        1.28770201447737     
   26.7000000000000        36.9790165520661        1.28771156525853     
   26.8000000000000        36.9792908002034        1.28772111533668     
   26.9000000000000        36.9795650281614        1.28773066471214     
   27.0000000000000        36.9798392359491        1.28774021338521     
   27.1000000000000        36.9801134235755        1.28774976135621     
   27.2000000000000        36.9803875910495        1.28775930862544     
