 # applied field (T), magnetization (2 f.u.), magnetization (T)
  0.000000000000000E+000 -1.323776440125187E-014 -4.609755452435701E-016
  0.100000000000000       0.269109432773312       9.371134259734511E-003
  0.200000000000000       0.538212159150992       1.874203498423686E-002
  0.300000000000000       0.753587371590184       2.624199517213061E-002
  0.400000000000000        1.02266112444750       3.561188695857174E-002
  0.500000000000000        1.29170939369296       4.498089133521239E-002
  0.600000000000000        1.56072547449900       5.434877482142431E-002
  0.700000000000000        1.77601301106424       6.184568189305377E-002
  0.800000000000000        2.04495425377303       7.121095930986911E-002
  0.900000000000000        2.31384453869330       8.057446223564250E-002
   1.00000000000000        2.58267716504803       8.993595733079701E-002
   1.10000000000000        2.85144543353839       9.929521130723128E-002
   1.20000000000000        3.06651152911664       0.106784407191637     
   1.30000000000000        3.33514706741013       0.116139039135754     
   1.40000000000000        3.60369949835952       0.125490777052443     
   1.50000000000000        3.87216212984958       0.134839387903755     
   1.60000000000000        4.08696536409033       0.142319430229848     
   1.70000000000000        4.35524948777749       0.151661824946072     
   1.80000000000000        4.62342508611145       0.161000440509537     
   1.90000000000000        4.83798518023773       0.168472016024813     
   2.00000000000000        5.10594858088182       0.177803242278208     
   2.10000000000000        5.37378475209529       0.187130038051172     
   2.20000000000000        5.64148702012588       0.196452170945203     
   2.30000000000000        5.85565012783543       0.203909922296188     
   2.40000000000000        6.12309454620098       0.213223076152194     
   2.50000000000000        6.39038618728141       0.222530909880859     
   2.60000000000000        6.60420746696381       0.229976757835137     
   2.70000000000000        6.87120787714728       0.239274450099017     
   2.80000000000000        7.13803707793188       0.248566180378410     
   2.90000000000000        7.35147478039104       0.255998671113578     
   3.00000000000000        7.61797903312782       0.265279085803800     
   3.10000000000000        7.88429347309540       0.274552890688761     
   3.20000000000000        8.09730591945048       0.281970572830990     
   3.30000000000000        8.36326195677286       0.291231897145230     
   3.40000000000000        8.57597904769082       0.298639294194785     
   3.50000000000000        8.84155521298316       0.307887390314985     
   3.60000000000000        9.10691108712462       0.317127815288432     
   3.70000000000000        9.31913463840291       0.324518025923604     
   3.80000000000000        9.58407730782707       0.333744061966710     
   3.90000000000000        9.79596201181269       0.341122473002587     
   4.00000000000000        10.0604700995519       0.350333375710253     
   4.10000000000000        10.2719982209442       0.357699369554645     
   4.20000000000000        10.5360503696039       0.366894395203359     
   4.30000000000000        10.7472051578447       0.374247388555537     
   4.40000000000000        11.0107800562145       0.383425795030052     
   4.50000000000000        11.2215444756269       0.390765194660655     
   4.60000000000000        11.4846208521453       0.399926241226403     
   4.70000000000000        11.6949778994899       0.407251455035644     
   4.80000000000000        11.9575345240106       0.416394402400252     
   4.90000000000000        12.2197928620085       0.425526962603682     
   5.00000000000000        12.3772054847823       0.431008505212531     
   5.10000000000000        12.6389739365553       0.440124006223579     
   5.20000000000000        12.8482637959836       0.447412057599898     
   5.30000000000000        13.1094607845704       0.456507658683295     
   5.40000000000000        13.3182849726076       0.463779494094670     
   5.50000000000000        13.5268967702101       0.471043933484071     
   5.60000000000000        13.7872310986153       0.480109494355578     
   5.70000000000000        13.9953529096774       0.487356871059332     
   5.80000000000000        14.2032515413616       0.494596476040288     
   5.90000000000000        14.4626798683643       0.503630487438799     
   6.00000000000000        14.6700642893655       0.510852186182509     
   6.10000000000000        14.8772147806981       0.518065738848583     
   6.20000000000000        15.0841280424937       0.525271030526483     
   6.30000000000000        15.3423046223693       0.534261452630235     
   6.40000000000000        15.5486721164450       0.541447739167643     
   6.50000000000000        15.7547916841483       0.548625392223503     
   6.60000000000000        16.0119607428392       0.557580729654843     
   6.70000000000000        16.1662733839503       0.562954322333940     
   6.80000000000000        16.3716294857473       0.570105389396746     
   6.90000000000000        16.6278310612329       0.579027036388784     
   7.00000000000000        16.8325952930609       0.586157492903355     
   7.10000000000000        17.0370911496330       0.593278603849739     
   7.20000000000000        17.2413153746640       0.600390255835076     
   7.30000000000000        17.4452647163276       0.607492335621794     
   7.40000000000000        17.6489365194456       0.614584750749242     
   7.50000000000000        17.8523263625465       0.621667347249570     
   7.60000000000000        18.0554315940388       0.628740032787026     
   7.70000000000000        18.2582489804664       0.635802694763732     
   7.80000000000000        18.4607752930987       0.642855220746370     
   7.90000000000000        18.6630073079836       0.649897498468011     
   8.00000000000000        18.8649418060002       0.656929415829969     
   8.10000000000000        19.0665749430906       0.663950838971528     
   8.20000000000000        19.2679047644327       0.670961699820372     
   8.30000000000000        19.4689274411151       0.677961865043226     
   8.40000000000000        19.6196163028671       0.683209267709018     
   8.50000000000000        19.8200937263459       0.690190445708259     
   8.60000000000000        20.0202552189546       0.697160622121380     
   8.70000000000000        20.2200975955630       0.704119686033346     
   8.80000000000000        20.4196183675279       0.711067550782717     
   8.90000000000000        20.6188129827255       0.718004057851963     
   9.00000000000000        20.7681184672070       0.723203287497581     
   9.10000000000000        20.9667358283555       0.730119692985324     
   9.20000000000000        21.1650190159994       0.737024461627993     
   9.30000000000000        21.3629648758419       0.743917483584251     
   9.40000000000000        21.5113250872263       0.749083796207921     
   9.50000000000000        21.7086729857875       0.755955995499617     
   9.60000000000000        21.9056749105105       0.762816147026005     
   9.70000000000000        22.0533220581500       0.767957628799192     
   9.80000000000000        22.2497109316869       0.774796432188827     
   9.90000000000000        22.4457452282467       0.781622888228075     
   10.0000000000000        22.5926608491792       0.786738896219406     
   10.1000000000000        22.7880678547345       0.793543508252064     
   10.2000000000000        22.9831109498996       0.800335447919101     
   10.3000000000000        23.1292773896717       0.805425367351710     
   10.4000000000000        23.3236774745068       0.812194915621795     
   10.5000000000000        23.4693579916311       0.817267913884731     
   10.6000000000000        23.6631055996987       0.824014741110344     
   10.7000000000000        23.8082923041120       0.829070543449801     
   10.8000000000000        24.0013779977687       0.835794320986114     
   10.9000000000000        24.1460654243717       0.840832737092228     
   11.0000000000000        24.3384798074448       0.847533137738536     
   11.1000000000000        24.4826601192369       0.852553894705284     
   11.2000000000000        24.6743938251727       0.859230592292298     
   11.3000000000000        24.8180608658092       0.864233475738745     
   11.4000000000000        24.9615045416068       0.869228581004123     
   11.5000000000000        25.1522496364116       0.875870852419064     
   11.6000000000000        25.2951692090857       0.880847706965077     
   11.7000000000000        25.4378620072889       0.885816664597215     
   11.8000000000000        25.6275995417821       0.892423849977242     
   11.9000000000000        25.7697574404324       0.897374180928501     
   12.0000000000000        25.9116851970000       0.902316497696335     
   12.1000000000000        26.1003963260298       0.908887940801173     
   12.2000000000000        26.2417801927117       0.913811317819888     
   12.3000000000000        26.3829288275403       0.918726503415303     
   12.4000000000000        26.5238409700578       0.923633453694785     
   12.5000000000000        26.7111906847969       0.930157488591107     
   12.6000000000000        26.8515461974886       0.935045055481547     
   12.7000000000000        26.9916610324823       0.939924241309317     
   12.8000000000000        27.1315339388831       0.944795002514797     
   12.9000000000000        27.2711636680341       0.949657295616307     
   13.0000000000000        27.4105489735285       0.954511077210513     
   13.1000000000000        27.5958491788145       0.960963742522896     
   13.2000000000000        27.7346594005183       0.965797498109997     
   13.3000000000000        27.8732210606281       0.970622598095380     
   13.4000000000000        28.0115329226183       0.975438999419801     
   13.5000000000000        28.1495937522743       0.980246659104501     
   13.6000000000000        28.2874023177045       0.985045534251607     
   13.7000000000000        28.4249583911185       0.989835616928828     
   13.8000000000000        28.5622587436969       0.994616794699753     
   13.9000000000000        28.6993031503769       0.999389059727062     
   14.0000000000000        28.8360903886719        1.00415236944041     
   14.1000000000000        28.9726192384758        1.00890668135231     
   14.2000000000000        29.1088884820733        1.01365195305856     
   14.3000000000000        29.2448958915621        1.01838810697744     
   14.4000000000000        29.3806422775911        1.02311517133800     
   14.5000000000000        29.5161254187780        1.02783306878555     
   14.6000000000000        29.6513441070858        1.03254175725291     
   14.7000000000000        29.7862971369250        1.03724119475812     
   14.8000000000000        29.8762799164537        1.04037464385107     
   14.9000000000000        30.0107884989404        1.04505860447103     
   15.0000000000000        30.1450271525592        1.04973316542173     
   15.1000000000000        30.2789957480098        1.05439832220058     
   15.2000000000000        30.4126930912758        1.05905403322863     
   15.3000000000000        30.5461179908517        1.06370025701437     
   15.4000000000000        30.6350777990158        1.06679808341694     
   15.5000000000000        30.7680448277452        1.07142836287426     
   15.6000000000000        30.9007373224321        1.07604908229741     
   15.7000000000000        31.0331530260265        1.08066016308969     
   15.8000000000000        31.1652907588910        1.08526156417284     
   15.9000000000000        31.2533890095293        1.08832938876104     
   16.0000000000000        31.3850607611118        1.09291456308800     
   16.1000000000000        31.5164525418066        1.09748998805482     
   16.2000000000000        31.6040507776521        1.10054040074591     
   16.3000000000000        31.7349702371678        1.10509937818379     
   16.4000000000000        31.8656054777340        1.10964845833227     
   16.5000000000000        31.9526981583458        1.11268126619278     
   16.6000000000000        32.0828570335216        1.11721375798171     
   16.7000000000000        32.2127274564792        1.12173620506713     
   16.8000000000000        32.2993090750592        1.12475121633514     
   16.9000000000000        32.4286991241970        1.12925693547641     
   17.0000000000000        32.5149585265046        1.13226072628322     
   17.1000000000000        32.6438638655505        1.13674956647936     
   17.2000000000000        32.7724768988649        1.14122822778202     
   17.3000000000000        32.8156036107177        1.14273001908970     
   17.4000000000000        32.9863407889550        1.14867555954847     
   17.5000000000000        33.0717525180390        1.15164983203068     
   17.6000000000000        33.1993827777249        1.15609427043923     
   17.7000000000000        33.2844646630665        1.15905705685066     
   17.8000000000000        33.4115987978313        1.16348421881818     
   17.9000000000000        33.4963475440260        1.16643540440373     
   18.0000000000000        33.6229824122647        1.17084518053086     
   18.1000000000000        33.7073983207691        1.17378477578807     
   18.2000000000000        33.8335307939109        1.17817705712932     
   18.3000000000000        33.9176105865558        1.18110494790329     
   18.4000000000000        34.0015553161915        1.18402813540997     
   18.5000000000000        34.1269791521957        1.18839574004744     
   18.6000000000000        34.2105861206983        1.19130716577790     
   18.7000000000000        34.3355001052333        1.19565701597800     
   18.8000000000000        34.4187647406159        1.19855652072303     
   18.9000000000000        34.5018923337857        1.20145125327942     
   19.0000000000000        34.6260872948875        1.20577606509621     
   19.1000000000000        34.7088709393482        1.20865882040790     
   19.2000000000000        34.7915151431394        1.21153672001006     
   19.3000000000000        34.9149850719491        1.21583628419847     
   19.4000000000000        34.9972837271602        1.21870215084399     
   19.5000000000000        35.0794430568990        1.22156316579147     
   19.6000000000000        35.2021819802420        1.22583727434905     
   19.7000000000000        35.2839916716809        1.22868611392453     
   19.8000000000000        35.3250818568737        1.23011698774501     
   19.9000000000000        35.4471906765463        1.23436915435120     
   20.0000000000000        35.5689809795979        1.23861022932828     
   20.1000000000000        35.6501561766739        1.24143697405633     
   20.2000000000000        35.7311894733569        1.24425877742048     
   20.3000000000000        35.8120805503813        1.24707562830303     
   20.4000000000000        35.9329125007638        1.25128333079131     
   20.5000000000000        36.0134454196787        1.25408770961855     
   20.6000000000000        36.0938363157003        1.25688714281610     
   20.7000000000000        36.1740835628428        1.25968157376263     
   20.8000000000000        36.2541868450991        1.26247099145392     
   20.9000000000000        36.3341458470590        1.26525538490649     
   21.0000000000000        36.4535764305768        1.26941428792721     
   21.1000000000000        36.4936297514438        1.27080905526600     
   21.2000000000000        36.6126264586711        1.27495284951506     
   21.3000000000000        36.6919324047307        1.27771450175616     
   21.4000000000000        36.7710923465718        1.28047106972682     
   21.5000000000000        36.8501059726985        1.28322254257989     
   21.6000000000000        36.9289729722228        1.28596890948940     
   21.7000000000000        37.0076930348651        1.28871015965055     
   21.8000000000000        37.0862644876410        1.29144623480539     
   21.9000000000000        37.1646897493794        1.29417721918424     
   22.0000000000000        37.2818145791407        1.29825582948612     
   22.1000000000000        37.3598696984978        1.30097392448419     
   22.2000000000000        37.4377761855287        1.30368684369385     
   22.3000000000000        37.5155337339444        1.30639457644926     
   22.4000000000000        37.5931420380755        1.30909711210618     
   22.5000000000000        37.6706022192515        1.31179448971240     
   22.6000000000000        37.7479111187438        1.31448659927224     
   22.7000000000000        37.8250698606425        1.31717347992965     
   22.8000000000000        37.9020781417691        1.31985512112711     
   22.9000000000000        37.9789356595707        1.32253151232888     
   23.0000000000000        38.0556421121226        1.32520264302112     
   23.1000000000000        38.1321957814568        1.32786845337943     
   23.2000000000000        38.1706510948191        1.32920757368006     
   23.3000000000000        38.2469784732182        1.33186550396255     
   23.4000000000000        38.3231537345129        1.33451813710702     
   23.5000000000000        38.3991765796199        1.33716546269856     
   23.6000000000000        38.4750467100913        1.33980747034438     
   23.7000000000000        38.5507638281154        1.34244414967387     
   23.8000000000000        38.6263276365186        1.34507549033862     
   23.9000000000000        38.7017393197086        1.34770153358297     
   24.0000000000000        38.7769956178646        1.35032216589096     
   24.1000000000000        38.8520977186902        1.35293742862171     
   24.2000000000000        38.8898245598165        1.35425118150561     
   24.3000000000000        38.9646947154926        1.35685836726516     
   24.4000000000000        39.0394099384288        1.35946015783848     
   24.5000000000000        39.1509567979756        1.36334452780014     
   24.6000000000000        39.1883729476878        1.36464746155026     
   24.7000000000000        39.2626216192821        1.36723300551632     
   24.8000000000000        39.2999206046328        1.36853185927953     
   24.9000000000000        39.3739349186067        1.37110924226549     
   25.0000000000000        39.4477926963614        1.37368117422764     
   25.1000000000000        39.5214936484887        1.37624764508798     
   25.2000000000000        39.5950374862362        1.37880864479135     
   25.3000000000000        39.6319846597375        1.38009524749357     
   25.4000000000000        39.7052921854599        1.38264801815907     
   25.5000000000000        39.7784418776805        1.38519529262580     
   25.6000000000000        39.8514334499556        1.38773706091898     
   25.7000000000000        39.8881022318216        1.38901396925499     
   25.8000000000000        39.9608559902918        1.39154745621417     
   25.9000000000000        40.0334509155203        1.39407541216087     
   26.0000000000000        40.1058852044829        1.39659777430879     
   26.1000000000000        40.1422753847666        1.39786498096766     
   26.2000000000000        40.2144718895337        1.40037906281267     
   26.3000000000000        40.2865085695133        1.40288757911683     
   26.4000000000000        40.3226986698891        1.40414781844029     
   26.5000000000000        40.3944949857872        1.40664796460277     
   26.6000000000000        40.4661307736378        1.40914252073494     
   26.7000000000000        40.5021199143611        1.41039576208785     
   26.8000000000000        40.5380687158291        1.41164759871640     
   26.9000000000000        40.6447490163331        1.41536250164117     
   27.0000000000000        40.6805363213077        1.41660871451544     
   27.1000000000000        40.7515270012697        1.41908080620787     
   27.2000000000000        40.8223557593171        1.42154725933169     
