 # applied field (T), magnetization (2 f.u.), magnetization (T)
 # T=0 1st order approx.
 # K1(0) (K, MJ/m^3)   75.6961344053042        6.17144847950456     
 # K2(0) (K, MJ/m^3)  -15.1595841297810       -1.23594940696341     
 # from A20
 # K1(0) from A20 (K, MJ/m^3)   58.3708953998402        2.37946743577319     
  0.000000000000000E+000  2.855622335129260E-016  9.826036842007069E-018
  0.100000000000000       0.653229004000127       2.247724490949636E-002
  0.200000000000000        1.30631200921298       4.494946608232772E-002
  0.300000000000000        2.00257796693376       6.890758851412347E-002
  0.400000000000000        2.65489677304787       9.135351402311113E-002
  0.500000000000000        3.30662217542829       0.113779020841302     
  0.600000000000000        3.95760848715849       0.136179095963329     
  0.700000000000000        4.65098486673483       0.160037789626285     
  0.800000000000000        5.29998279694230       0.182369445651508     
  0.900000000000000        5.94779595549755       0.204660334346398     
   1.00000000000000        6.63729729814159       0.228385690154441     
   1.10000000000000        7.28220321181335       0.250576542177876     
   1.20000000000000        7.96827464006321       0.274183876548744     
   1.30000000000000        8.65231910822347       0.297721464355885     
   1.40000000000000        9.33416245221633       0.321183312710730     
   1.50000000000000        9.97126509513893       0.343105658549274     
   1.60000000000000        10.6483500374691       0.366403772962584     
   1.70000000000000        11.3647521810623       0.391054770295259     
   1.80000000000000        12.0360604565476       0.414154112831266     
   1.90000000000000        12.7043054542043       0.437148049689393     
   2.00000000000000        13.4107412570264       0.461456110806756     
   2.10000000000000        14.0721310532218       0.484214164014268     
   2.20000000000000        14.7709011278201       0.508258451708160     
   2.30000000000000        15.4654256431803       0.532156652081695     
   2.40000000000000        16.1959292132904       0.557292871618916     
   2.50000000000000        16.8810839662417       0.580868663705129     
   2.60000000000000        17.6012219172272       0.605648208082066     
   2.70000000000000        18.3156852554706       0.630232492206338     
   2.80000000000000        19.0242427178095       0.654613558441786     
   2.90000000000000        19.7654806479381       0.680119141307339     
   3.00000000000000        20.4611799131123       0.704057764165359     
   3.10000000000000        21.2263818237039       0.730387934204131     
   3.20000000000000        21.9455173250419       0.755132984849011     
   3.30000000000000        22.6939511161335       0.780886173268221     
   3.40000000000000        23.4333419597253       0.806328198918461     
   3.50000000000000        24.1996256917719       0.832695593828826     
   3.60000000000000        24.9909677546999       0.859925231898625     
   3.70000000000000        25.7351160417172       0.885530958517994     
   3.80000000000000        26.5371043708316       0.913126928656604     
   3.90000000000000        27.3250943578066       0.940241223666482     
   4.00000000000000        28.1319507759942       0.968004702029113     
   4.10000000000000        28.9552141462383       0.996332734441452     
   4.20000000000000        29.7604192489517        1.02403939196161     
   4.30000000000000        30.6091447384810        1.05324356166666     
   4.40000000000000        31.4657534150135        1.08271898743024     
   4.50000000000000        32.3269642732637        1.11235277169436     
   4.60000000000000        33.2174970163339        1.14299550562586     
   4.70000000000000        34.1032816592902        1.17347486008636     
   4.80000000000000        35.0320826795522        1.20543438404622     
   4.90000000000000        35.9672673889014        1.23761356717945     
   5.00000000000000        36.9228243757389        1.27049374899410     
   5.10000000000000        37.9270776317072        1.30504954221108     
   5.20000000000000        38.9331067854592        1.33966644307816     
   5.30000000000000        39.9854580634785        1.37587726234983     
   5.40000000000000        41.0704351014063        1.41321071578399     
   5.50000000000000        42.1914921341379        1.45178566167267     
   5.60000000000000        43.3703281631083        1.49234875052673     
   5.70000000000000        43.5717329951099        1.49927897822197     
   5.80000000000000        43.5719779737093        1.49928740779865     
   5.90000000000000        43.5722229297448        1.49929583659892     
   6.00000000000000        43.5724678632245        1.49930426462305     
   6.10000000000000        43.5727127741569        1.49931269187134     
   6.20000000000000        43.5729576625502        1.49932111834408     
   6.30000000000000        43.5732025284127        1.49932954404154     
   6.40000000000000        43.5734473717527        1.49933796896401     
   6.50000000000000        43.5736921925785        1.49934639311179     
   6.60000000000000        43.5739369908985        1.49935481648515     
   6.70000000000000        43.5741817667209        1.49936323908438     
   6.80000000000000        43.5744265200539        1.49937166090977     
   6.90000000000000        43.5746712509060        1.49938008196160     
   7.00000000000000        43.5749159592855        1.49938850224016     
   7.10000000000000        43.5751606452005        1.49939692174573     
   7.20000000000000        43.5754053086595        1.49940534047860     
   7.30000000000000        43.5756499496707        1.49941375843906     
   7.40000000000000        43.5758945682424        1.49942217562738     
   7.50000000000000        43.5761391643830        1.49943059204386     
   7.60000000000000        43.5763837381007        1.49943900768879     
   7.70000000000000        43.5766282894038        1.49944742256244     
   7.80000000000000        43.5768728183007        1.49945583666510     
   7.90000000000000        43.5771173247997        1.49946424999706     
   8.00000000000000        43.5773618089090        1.49947266255861     
   8.10000000000000        43.5776062706369        1.49948107435003     
   8.20000000000000        43.5778507099919        1.49948948537161     
   8.30000000000000        43.5780951269821        1.49949789562362     
   8.40000000000000        43.5783395216158        1.49950630510637     
   8.50000000000000        43.5785838939015        1.49951471382013     
   8.60000000000000        43.5788282438473        1.49952312176519     
   8.70000000000000        43.5790725714616        1.49953152894183     
   8.80000000000000        43.5793168767528        1.49953993535034     
   8.90000000000000        43.5795611597290        1.49954834099102     
   9.00000000000000        43.5798054203987        1.49955674586413     
   9.10000000000000        43.5800496587700        1.49956514996997     
   9.20000000000000        43.5802938748514        1.49957355330883     
   9.30000000000000        43.5805380686511        1.49958195588099     
   9.40000000000000        43.5807822401775        1.49959035768673     
   9.50000000000000        43.5810263894388        1.49959875872635     
   9.60000000000000        43.5812705164434        1.49960715900013     
   9.70000000000000        43.5815146211996        1.49961555850834     
   9.80000000000000        43.5817587037156        1.49962395725129     
   9.90000000000000        43.5820027639998        1.49963235522926     
   10.0000000000000        43.5822468020605        1.49964075244252     
   10.1000000000000        43.5824908179060        1.49964914889137     
   10.2000000000000        43.5827348115446        1.49965754457610     
   10.3000000000000        43.5829787829847        1.49966593949699     
   10.4000000000000        43.5832227322345        1.49967433365432     
   10.5000000000000        43.5834666593023        1.49968272704838     
   10.6000000000000        43.5837105641965        1.49969111967946     
   10.7000000000000        43.5839544469253        1.49969951154784     
   10.8000000000000        43.5841983074972        1.49970790265382     
   10.9000000000000        43.5844421459203        1.49971629299766     
   11.0000000000000        43.5846859622030        1.49972468257967     
   11.1000000000000        43.5849297563536        1.49973307140013     
   11.2000000000000        43.5851735283805        1.49974145945932     
   11.3000000000000        43.5854172782919        1.49974984675753     
   11.4000000000000        43.5856610060961        1.49975823329504     
   11.5000000000000        43.5859047118016        1.49976661907215     
   11.6000000000000        43.5861483954165        1.49977500408913     
   11.7000000000000        43.5863920569491        1.49978338834628     
   11.8000000000000        43.5866356964079        1.49979177184387     
   11.9000000000000        43.5868793138011        1.49980015458220     
   12.0000000000000        43.5871229091371        1.49980853656156     
   12.1000000000000        43.5873664824241        1.49981691778222     
   12.2000000000000        43.5876100336704        1.49982529824447     
   12.3000000000000        43.5878535628844        1.49983367794861     
   12.4000000000000        43.5880970700744        1.49984205689491     
   12.5000000000000        43.5883405552488        1.49985043508367     
   12.6000000000000        43.5885840184157        1.49985881251516     
   12.7000000000000        43.5888274595836        1.49986718918967     
   12.8000000000000        43.5890708787607        1.49987556510750     
   12.9000000000000        43.5893142759554        1.49988394026893     
   13.0000000000000        43.5895576511760        1.49989231467423     
   13.1000000000000        43.5898010044308        1.49990068832371     
   13.2000000000000        43.5900443357282        1.49990906121764     
   13.3000000000000        43.5902876450763        1.49991743335632     
   13.4000000000000        43.5905309324836        1.49992580474002     
   13.5000000000000        43.5907741979584        1.49993417536904     
   13.6000000000000        43.5910174415090        1.49994254524365     
   13.7000000000000        43.5912606631437        1.49995091436415     
   13.8000000000000        43.5915038628708        1.49995928273083     
   13.9000000000000        43.5917470406987        1.49996765034396     
   14.0000000000000        43.5919901966356        1.49997601720384     
   14.1000000000000        43.5922333306899        1.49998438331075     
   14.2000000000000        43.5924764428699        1.49999274866498     
   14.3000000000000        43.5927195331840        1.50000111326681     
   14.4000000000000        43.5929626016404        1.50000947711654     
   14.5000000000000        43.5932056482474        1.50001784021444     
   14.6000000000000        43.5934486730134        1.50002620256080     
   14.7000000000000        43.5936916759468        1.50003456415591     
   14.8000000000000        43.5939346570558        1.50004292500006     
   14.9000000000000        43.5941776163487        1.50005128509353     
   15.0000000000000        43.5944205538339        1.50005964443660     
   15.1000000000000        43.5946634695196        1.50006800302957     
   15.2000000000000        43.5949063634143        1.50007636087273     
   15.3000000000000        43.5951492355262        1.50008471796634     
   15.4000000000000        43.5953920858637        1.50009307431072     
   15.5000000000000        43.5956349144350        1.50010142990613     
   15.6000000000000        43.5958777212486        1.50010978475287     
   15.7000000000000        43.5961205063127        1.50011813885122     
   15.8000000000000        43.5963632696356        1.50012649220147     
   15.9000000000000        43.5966060112257        1.50013484480391     
   16.0000000000000        43.5968487310913        1.50014319665881     
   16.1000000000000        43.5970914292406        1.50015154776648     
   16.2000000000000        43.5973341056822        1.50015989812719     
   16.3000000000000        43.5975767604242        1.50016824774123     
   16.4000000000000        43.5978193934750        1.50017659660889     
   16.5000000000000        43.5980620048429        1.50018494473046     
   16.6000000000000        43.5983045945362        1.50019329210621     
   16.7000000000000        43.5985471625634        1.50020163873644     
   16.8000000000000        43.5987897089326        1.50020998462144     
   16.9000000000000        43.5990322336522        1.50021832976148     
   17.0000000000000        43.5992747367305        1.50022667415686     
   17.1000000000000        43.5995172181760        1.50023501780787     
   17.2000000000000        43.5997596779968        1.50024336071478     
   17.3000000000000        43.6000021162013        1.50025170287789     
   17.4000000000000        43.6002445327979        1.50026004429748     
   17.5000000000000        43.6004869277949        1.50026838497384     
   17.6000000000000        43.6007293012006        1.50027672490726     
   17.7000000000000        43.6009716530233        1.50028506409801     
   17.8000000000000        43.6012139832713        1.50029340254640     
   17.9000000000000        43.6014562919531        1.50030174025270     
   18.0000000000000        43.6016985790768        1.50031007721721     
   18.1000000000000        43.6019408446509        1.50031841344020     
   18.2000000000000        43.6021830886837        1.50032674892197     
   18.3000000000000        43.6024253111835        1.50033508366279     
   18.4000000000000        43.6026675121585        1.50034341766297     
   18.5000000000000        43.6029096916173        1.50035175092278     
   18.6000000000000        43.6031518495680        1.50036008344251     
   18.7000000000000        43.6033939860191        1.50036841522245     
   18.8000000000000        43.6036361009788        1.50037674626289     
   18.9000000000000        43.6038781944555        1.50038507656410     
   19.0000000000000        43.6041202664575        1.50039340612639     
   19.1000000000000        43.6043623169931        1.50040173495003     
   19.2000000000000        43.6046043460707        1.50041006303531     
   19.3000000000000        43.6048463536986        1.50041839038251     
   19.4000000000000        43.6050883398851        1.50042671699194     
   19.5000000000000        43.6053303046386        1.50043504286386     
   19.6000000000000        43.6055722479674        1.50044336799857     
   19.7000000000000        43.6058141698798        1.50045169239636     
   19.8000000000000        43.6060560703842        1.50046001605750     
   19.9000000000000        43.6062979494889        1.50046833898230     
   20.0000000000000        43.6065398072022        1.50047666117103     
   20.1000000000000        43.6067816435324        1.50048498262398     
   20.2000000000000        43.6070234584879        1.50049330334144     
   20.3000000000000        43.6072652520771        1.50050162332369     
   20.4000000000000        43.6075070243082        1.50050994257103     
   20.5000000000000        43.6077487751896        1.50051826108373     
   20.6000000000000        43.6079905047297        1.50052657886209     
   20.7000000000000        43.6082322129367        1.50053489590639     
   20.8000000000000        43.6084738998190        1.50054321221692     
   20.9000000000000        43.6087155653849        1.50055152779397     
   21.0000000000000        43.6089572096428        1.50055984263782     
   21.1000000000000        43.6091988326010        1.50056815674875     
   21.2000000000000        43.6094404342678        1.50057647012707     
   21.3000000000000        43.6096820146516        1.50058478277304     
   21.4000000000000        43.6099235737607        1.50059309468697     
   21.5000000000000        43.6101651116034        1.50060140586913     
   21.6000000000000        43.6104066281882        1.50060971631982     
   21.7000000000000        43.6106481235232        1.50061802603932     
   21.8000000000000        43.6108895976169        1.50062633502791     
   21.9000000000000        43.6111310504776        1.50063464328589     
   22.0000000000000        43.6113724821136        1.50064295081354     
   22.1000000000000        43.6116138925332        1.50065125761114     
   22.2000000000000        43.6118552817449        1.50065956367899     
   22.3000000000000        43.6120966497569        1.50066786901737     
   22.4000000000000        43.6123379965776        1.50067617362657     
   22.5000000000000        43.6125793222153        1.50068447750688     
   22.6000000000000        43.6128206266783        1.50069278065858     
   22.7000000000000        43.6130619099751        1.50070108308195     
   22.8000000000000        43.6133031721138        1.50070938477730     
   22.9000000000000        43.6135444131030        1.50071768574489     
   23.0000000000000        43.6137856329508        1.50072598598503     
   23.1000000000000        43.6140268316657        1.50073428549799     
   23.2000000000000        43.6142680092560        1.50074258428407     
   23.3000000000000        43.6145091657300        1.50075088234355     
   23.4000000000000        43.6147503010961        1.50075917967671     
   23.5000000000000        43.6149914153626        1.50076747628386     
   23.6000000000000        43.6152325085379        1.50077577216526     
   23.7000000000000        43.6154735806302        1.50078406732121     
   23.8000000000000        43.6157146316480        1.50079236175200     
   23.9000000000000        43.6159556615996        1.50080065545791     
   24.0000000000000        43.6161966704932        1.50080894843923     
   24.1000000000000        43.6164376583374        1.50081724069625     
   24.2000000000000        43.6166786251403        1.50082553222925     
   24.3000000000000        43.6169195709103        1.50083382303852     
   24.4000000000000        43.6171604956559        1.50084211312435     
   24.5000000000000        43.6174013993853        1.50085040248703     
   24.6000000000000        43.6176422821068        1.50085869112684     
   24.7000000000000        43.6178831438289        1.50086697904407     
   24.8000000000000        43.6181239845598        1.50087526623900     
   24.9000000000000        43.6183648043079        1.50088355271193     
   25.0000000000000        43.6186056030816        1.50089183846314     
   25.1000000000000        43.6188463808891        1.50090012349291     
   25.2000000000000        43.6190871377389        1.50090840780155     
   25.3000000000000        43.6193278736393        1.50091669138932     
   25.4000000000000        43.6195685885985        1.50092497425652     
   25.5000000000000        43.6198092826251        1.50093325640344     
   25.6000000000000        43.6200499557272        1.50094153783036     
   25.7000000000000        43.6202906079133        1.50094981853758     
   25.8000000000000        43.6205312391917        1.50095809852537     
   25.9000000000000        43.6207718495708        1.50096637779402     
   26.0000000000000        43.6210124390588        1.50097465634383     
   26.1000000000000        43.6212530076642        1.50098293417508     
   26.2000000000000        43.6214935553953        1.50099121128805     
   26.3000000000000        43.6217340822604        1.50099948768304     
   26.4000000000000        43.6219745882679        1.50100776336033     
   26.5000000000000        43.6222150734261        1.50101603832020     
   26.6000000000000        43.6224555377433        1.50102431256295     
   26.7000000000000        43.6226959812280        1.50103258608887     
   26.8000000000000        43.6229364038885        1.50104085889823     
