 # applied field (T), magnetization (2 f.u.), magnetization (T)
 # T=0 1st order approx.
 # K1(0) (K, MJ/m^3)   141.673325212347        11.2216744363760     
 # K2(0) (K, MJ/m^3)  -8.92202743929787      -0.706696811740316     
 # from A20
 # K1(0) from A20 (K, MJ/m^3)   131.476722424578        5.20701046862211     
  0.000000000000000E+000  1.637749254449738E-015  5.474963143808335E-017
  0.100000000000000       0.248293085655654       8.300388408870882E-003
  0.200000000000000       0.496574126428445       1.660037415970621E-002
  0.300000000000000       0.744831077974967       2.489955461250447E-002
  0.400000000000000       0.993051897030685       3.319752716333050E-002
  0.500000000000000        1.27660733147282       4.267672887005840E-002
  0.600000000000000        1.52471019206413       5.097075809290943E-002
  0.700000000000000        1.77273908541001       5.926231460547519E-002
  0.800000000000000        2.02068197845987       6.755099614527099E-002
  0.900000000000000        2.26852684201541       7.583640057859328E-002
   1.00000000000000        2.51626165126982       8.411812591854462E-002
   1.10000000000000        2.76387438634679       9.239577034305381E-002
   1.20000000000000        3.01135303283950       0.100668932212893     
   1.30000000000000        3.29394055136904       0.110115776683412     
   1.40000000000000        3.54109147104582       0.118377982711058     
   1.50000000000000        3.78807058663450       0.126634445362251     
   1.60000000000000        4.03486591212283       0.134884763946990     
   1.70000000000000        4.28146546973778       0.143128538050705     
   1.80000000000000        4.52785729048361       0.151365367552255     
   1.90000000000000        4.77402941467995       0.159594852641905     
   2.00000000000000        5.05501930944184       0.168988288868019     
   2.10000000000000        5.30068048067030       0.177200692901703     
   2.20000000000000        5.54608443683403       0.185404498286994     
   2.30000000000000        5.79121926256622       0.193599306695554     
   2.40000000000000        6.03607305457893       0.201784720202835     
   2.50000000000000        6.31548154211910       0.211125290300445     
   2.60000000000000        6.55969315941181       0.219289236034719     
   2.70000000000000        6.80358641964905       0.227442539156024     
   2.80000000000000        7.04714947529208       0.235584803603502     
   2.90000000000000        7.29037049363864       0.243715633812272     
   3.00000000000000        7.56783870182874       0.252991340757592     
   3.10000000000000        7.81028708612196       0.261096341963819     
   3.20000000000000        8.05235634951944       0.269188669233999     
   3.30000000000000        8.29403472647608       0.277267929248302     
   3.40000000000000        8.56968051810551       0.286482713170912     
   3.50000000000000        8.81048183030569       0.294532653085064     
   3.60000000000000        9.05085539790496       0.302568293582387     
   3.70000000000000        9.29078953168108       0.310589243894510     
   3.80000000000000        9.56438292544129       0.319735416565063     
   3.90000000000000        9.80333624105947       0.327723578321484     
   4.00000000000000        10.0418135188977       0.335695826229719     
   4.10000000000000        10.3136975024965       0.344784853658983     
   4.20000000000000        10.5511157554218       0.352721698575272     
   4.30000000000000        10.7880215785836       0.360641413066612     
   4.40000000000000        11.0580654702597       0.369668926589332     
   4.50000000000000        11.2938345335185       0.377550639423486     
   4.60000000000000        11.5625493492099       0.386533722200708     
   4.70000000000000        11.7971289414573       0.394375671255820     
   4.80000000000000        12.0311354235162       0.402198461351457     
   4.90000000000000        12.2977922462110       0.411112745832627     
   5.00000000000000        12.5305323950734       0.418893202661683     
   5.10000000000000        12.7957124377799       0.427758118681928     
   5.20000000000000        13.0271341712436       0.435494501146748     
   5.30000000000000        13.2907780761415       0.444308064385955     
   5.40000000000000        13.5208295861921       0.451998640554941     
   5.50000000000000        13.7828783149894       0.460758877374766     
   5.60000000000000        14.0115080788660       0.468401924852279     
   5.70000000000000        14.2719029254239       0.477106872718190     
   5.80000000000000        14.5313918889132       0.485781537093516     
   5.90000000000000        14.7577423195902       0.493348386916066     
   6.00000000000000        15.0154880608942       0.501964775720878     
   6.10000000000000        15.2402875742637       0.509479778686685     
   6.20000000000000        15.4962322849644       0.518035959397085     
   6.30000000000000        15.7511930170234       0.526559245897436     
   6.40000000000000        16.0051534948622       0.535049094098396     
   6.50000000000000        16.2265885021785       0.542451622296847     
   6.60000000000000        16.4786296900614       0.550877309016785     
   6.70000000000000        16.7296241645782       0.559268004317337     
   6.80000000000000        16.9795558865005       0.567623172010286     
   6.90000000000000        17.1974140465247       0.574906126916048     
   7.00000000000000        17.4453099369547       0.583193237167621     
   7.10000000000000        17.6920973169284       0.591443290135390     
   7.20000000000000        17.9377603986215       0.599655758035524     
   7.30000000000000        18.1822834615123       0.607830115334121     
   7.40000000000000        18.4256508533769       0.615965838780449     
   7.50000000000000        18.6678469912817       0.624062407440144     
   7.60000000000000        18.9088563625748       0.632119302728339     
   7.70000000000000        19.1486635258752       0.640136008442745     
   7.80000000000000        19.3872531120606       0.648112010796660     
   7.90000000000000        19.6246098252530       0.656046798451934     
   8.00000000000000        19.8607184438031       0.663939862551857     
   8.10000000000000        20.0955638212720       0.671790696753994     
   8.20000000000000        20.3581861469373       0.680570108802889     
   8.30000000000000        20.5902973789005       0.688329541065246     
   8.40000000000000        20.8210985341465       0.696045177723830     
   8.50000000000000        21.0791160092669       0.704670650536012     
   8.60000000000000        21.3070843127918       0.712291585525690     
   8.70000000000000        21.5336964775377       0.719867185066042     
   8.80000000000000        21.7869471875873       0.728333305871151     
   8.90000000000000        22.0106294693194       0.735810960005806     
   9.00000000000000        22.2605477987323       0.744165679989832     
   9.10000000000000        22.4812352056416       0.751543216055554     
   9.20000000000000        22.7277485040828       0.759784106532269     
   9.30000000000000        22.9724301498006       0.767963765223192     
   9.40000000000000        23.1884134206338       0.775184042956662     
   9.50000000000000        23.4295807426317       0.783246218505464     
   9.60000000000000        23.6688591472953       0.791245247923937     
   9.70000000000000        23.9062290949235       0.799180478003761     
   9.80000000000000        24.1416711937344       0.807051260481532     
   9.90000000000000        24.3751662015507       0.814856952095093     
   10.0000000000000        24.6066950274785       0.822596914639663     
   10.1000000000000        24.8362387335806       0.830270515023774     
   10.2000000000000        25.0637785365435       0.837877125324994     
   10.3000000000000        25.3141871797451       0.846248236401340     
   10.4000000000000        25.5374357481179       0.853711391584760     
   10.5000000000000        25.7586229837063       0.861105636823687     
   10.6000000000000        26.0019071083399       0.869238576663066     
   10.7000000000000        26.2186835074901       0.876485368518232     
   10.8000000000000        26.4570228946159       0.884453006767409     
   10.9000000000000        26.6927247639485       0.892332473321991     
   11.0000000000000        26.9257652179430       0.900122969291809     
   11.1000000000000        27.1561206178256       0.907823704437361     
   11.2000000000000        27.3837675862844       0.915433897259770     
   11.3000000000000        27.6086830101449       0.922952775090208     
   11.4000000000000        27.8308440430282       0.930379574178785     
   11.5000000000000        28.0502281079942       0.937713539782886     
   11.6000000000000        28.2882828060540       0.945671660933282     
   11.7000000000000        28.5017631692612       0.952808266963238     
   11.8000000000000        28.7332711831943       0.960547533766969     
   11.9000000000000        28.9613084148872       0.968170773011577     
   12.0000000000000        29.1858467509554       0.975677044872213     
   12.1000000000000        29.4068584957734       0.983065423489632     
   12.2000000000000        29.6438786425471       0.990988959796551     
   12.3000000000000        29.8574291725993       0.998127911490164     
   12.4000000000000        30.0862467922969        1.00577723895036     
   12.5000000000000        30.3107355714088        1.01328185413182     
   12.6000000000000        30.5308624668082        1.02064065240938     
   12.7000000000000        30.7465950613287        1.02785255008364     
   12.8000000000000        30.9752838264579        1.03549756996128     
   12.9000000000000        31.1987389380820        1.04296762984446     
   13.0000000000000        31.4169217069956        1.05026143636075     
   13.1000000000000        31.6297943382095        1.05737772603119     
   13.2000000000000        31.8530378233593        1.06484071128348     
   13.3000000000000        32.0700355167280        1.07209490096030     
   13.4000000000000        32.2807437467382        1.07913883512952     
   13.5000000000000        32.4994540823069        1.08645027809403     
   13.6000000000000        32.7246574257636        1.09397878101924     
   13.7000000000000        32.9414744860059        1.10122693216662     
   13.8000000000000        33.1498481291688        1.10819282156243     
   13.9000000000000        33.3619145724594        1.11528216053114     
   14.0000000000000        33.5874666602613        1.12282232191036     
   14.1000000000000        33.8008730443064        1.12995645483166     
   14.2000000000000        34.0122881634485        1.13702402016379     
   14.3000000000000        34.2195865210167        1.14395396297631     
   14.4000000000000        34.4379355842075        1.15125332867717     
   14.5000000000000        34.6442263337103        1.15814958735271     
   14.6000000000000        34.8562776367768        1.16523842018675     
   14.7000000000000        35.0674006948395        1.17229622197515     
   14.8000000000000        35.2801650331037        1.17940889143385     
   14.9000000000000        35.4898589216819        1.18641891637099     
   15.0000000000000        35.5119347071677        1.18715690548365     
   15.1000000000000        35.5121899544306        1.18716543834882     
   15.2000000000000        35.5124451799969        1.18717397048868     
   15.3000000000000        35.5127003838745        1.18718250190349     
   15.4000000000000        35.5129555660716        1.18719103259352     
   15.5000000000000        35.5132107265960        1.18719956255904     
   15.6000000000000        35.5134658654557        1.18720809180031     
   15.7000000000000        35.5137209826587        1.18721662031760     
   15.8000000000000        35.5139760782131        1.18722514811119     
   15.9000000000000        35.5142311521268        1.18723367518133     
   16.0000000000000        35.5144862044077        1.18724220152829     
   16.1000000000000        35.5147412350639        1.18725072715234     
   16.2000000000000        35.5149962441034        1.18725925205374     
   16.3000000000000        35.5152512315341        1.18726777623277     
   16.4000000000000        35.5155061973640        1.18727629968970     
   16.5000000000000        35.5157611416012        1.18728482242478     
   16.6000000000000        35.5160160642536        1.18729334443828     
   16.7000000000000        35.5162709653291        1.18730186573048     
   16.8000000000000        35.5165258448359        1.18731038630163     
   16.9000000000000        35.5167807027819        1.18731890615201     
   17.0000000000000        35.5170355391750        1.18732742528189     
   17.1000000000000        35.5172903540233        1.18733594369152     
   17.2000000000000        35.5175451473348        1.18734446138119     
   17.3000000000000        35.5177999191174        1.18735297835115     
   17.4000000000000        35.5180546693792        1.18736149460167     
   17.5000000000000        35.5183093981281        1.18737001013302     
   17.6000000000000        35.5185641053721        1.18737852494546     
   17.7000000000000        35.5188187911193        1.18738703903927     
   17.8000000000000        35.5190734553777        1.18739555241472     
   17.9000000000000        35.5193280981551        1.18740406507206     
   18.0000000000000        35.5195827194596        1.18741257701156     
   18.1000000000000        35.5198373192993        1.18742108823350     
   18.2000000000000        35.5200918976821        1.18742959873814     
   18.3000000000000        35.5203464546160        1.18743810852575     
   18.4000000000000        35.5206009901090        1.18744661759659     
   18.5000000000000        35.5208555041691        1.18745512595094     
   18.6000000000000        35.5211099968043        1.18746363358905     
   18.7000000000000        35.5213644680226        1.18747214051121     
   18.8000000000000        35.5216189178320        1.18748064671767     
   18.9000000000000        35.5218733462405        1.18748915220870     
   19.0000000000000        35.5221277532562        1.18749765698457     
   19.1000000000000        35.5223821388869        1.18750616104555     
   19.2000000000000        35.5226365031408        1.18751466439190     
   19.3000000000000        35.5228908460257        1.18752316702389     
   19.4000000000000        35.5231451675498        1.18753166894180     
   19.5000000000000        35.5233994677210        1.18754017014588     
   19.6000000000000        35.5236537465473        1.18754867063641     
   19.7000000000000        35.5239080040367        1.18755717041365     
   19.8000000000000        35.5241622401973        1.18756566947786     
   19.9000000000000        35.5244164550369        1.18757416782933     
   20.0000000000000        35.5246706485638        1.18758266546831     
   20.1000000000000        35.5249248207858        1.18759116239508     
   20.2000000000000        35.5251789717109        1.18759965860989     
   20.3000000000000        35.5254331013472        1.18760815411303     
   20.4000000000000        35.5256872097026        1.18761664890475     
   20.5000000000000        35.5259412967852        1.18762514298532     
   20.6000000000000        35.5261953626030        1.18763363635502     
   20.7000000000000        35.5264494071640        1.18764212901410     
   20.8000000000000        35.5267034304762        1.18765062096284     
   20.9000000000000        35.5269574325476        1.18765911220151     
   21.0000000000000        35.5272114133862        1.18766760273036     
   21.1000000000000        35.5274653730000        1.18767609254968     
   21.2000000000000        35.5277193113971        1.18768458165973     
   21.3000000000000        35.5279732285854        1.18769307006077     
   21.4000000000000        35.5282271245730        1.18770155775307     
   21.5000000000000        35.5284809993678        1.18771004473691     
   21.6000000000000        35.5287348529779        1.18771853101254     
   21.7000000000000        35.5289886854114        1.18772701658024     
   21.8000000000000        35.5292424966761        1.18773550144028     
   21.9000000000000        35.5294962867802        1.18774398559292     
   22.0000000000000        35.5297500557315        1.18775246903843     
   22.1000000000000        35.5300038035383        1.18776095177708     
   22.2000000000000        35.5302575302084        1.18776943380913     
   22.3000000000000        35.5305112357499        1.18777791513486     
   22.4000000000000        35.5307649201709        1.18778639575454     
   22.5000000000000        35.5310185834792        1.18779487566842     
   22.6000000000000        35.5312722256829        1.18780335487678     
   22.7000000000000        35.5315258467901        1.18781183337989     
   22.8000000000000        35.5317794468088        1.18782031117801     
   22.9000000000000        35.5320330257470        1.18782878827142     
   23.0000000000000        35.5322865836127        1.18783726466038     
   23.1000000000000        35.5325401204138        1.18784574034515     
   23.2000000000000        35.5327936361586        1.18785421532601     
   23.3000000000000        35.5330471308549        1.18786268960323     
   23.4000000000000        35.5333006045108        1.18787116317707     
   23.5000000000000        35.5335540571343        1.18787963604780     
   23.6000000000000        35.5338074887334        1.18788810821569     
   23.7000000000000        35.5340608993162        1.18789657968101     
   23.8000000000000        35.5343142888906        1.18790505044402     
   23.9000000000000        35.5345676574648        1.18791352050500     
   24.0000000000000        35.5348210050466        1.18792198986421     
   24.1000000000000        35.5350743316442        1.18793045852192     
   24.2000000000000        35.5353276372656        1.18793892647840     
   24.3000000000000        35.5355809219187        1.18794739373392     
   24.4000000000000        35.5358341856117        1.18795586028874     
   24.5000000000000        35.5360874283525        1.18796432614314     
   24.6000000000000        35.5363406501492        1.18797279129737     
   24.7000000000000        35.5365938510098        1.18798125575172     
   24.8000000000000        35.5368470309422        1.18798971950645     
   24.9000000000000        35.5371001899547        1.18799818256182     
   25.0000000000000        35.5373533280551        1.18800664491810     
   25.1000000000000        35.5376064452515        1.18801510657557     
   25.2000000000000        35.5378595415519        1.18802356753450     
   25.3000000000000        35.5381126169644        1.18803202779514     
   25.4000000000000        35.5383656714970        1.18804048735777     
   25.5000000000000        35.5386187051577        1.18804894622266     
   25.6000000000000        35.5388717179546        1.18805740439007     
   25.7000000000000        35.5391247098956        1.18806586186028     
   25.8000000000000        35.5393776809889        1.18807431863355     
   25.9000000000000        35.5396306312423        1.18808277471016     
   26.0000000000000        35.5398835606641        1.18809123009036     
   26.1000000000000        35.5401364692622        1.18809968477443     
   26.2000000000000        35.5403893570446        1.18810813876263     
   26.3000000000000        35.5406422240193        1.18811659205525     
   26.4000000000000        35.5408950701945        1.18812504465253     
   26.5000000000000        35.5411478955781        1.18813349655476     
   26.6000000000000        35.5414007001782        1.18814194776220     
   26.7000000000000        35.5416534840028        1.18815039827511     
   26.8000000000000        35.5419062470600        1.18815884809378     
