 # applied field (T), theta (degree), phi (degree), abs for RE 3-4
     0.00000     0.00000     0.00000     4.70458     0.00000     0.00000     4.72095
     0.10000     0.30339   360.00000     4.70457     0.24696   360.00000     4.72095
     0.20000     0.60681   360.00000     4.70457     0.49393   360.00000     4.72095
     0.30000     0.91027   360.00000     4.70456     0.74092   360.00000     4.72094
     0.40000     1.21382   360.00000     4.70454     0.98794   360.00000     4.72093
     0.50000     1.56744   360.00000     4.70452     1.27568   360.00000     4.72091
     0.60000     1.87124   360.00000     4.70449     1.52282   360.00000     4.72089
     0.70000     2.17520   360.00000     4.70446     1.77002   360.00000     4.72087
     0.80000     2.47934   360.00000     4.70442     2.01730   360.00000     4.72085
     0.90000     2.78369   360.00000     4.70438     2.26467   360.00000     4.72082
     1.00000     3.08827   360.00000     4.70434     2.51214   360.00000     4.72079
     1.10000     3.39312   360.00000     4.70429     2.75972   360.00000     4.72076
     1.20000     3.74849   360.00000     4.70423     3.04820   360.00000     4.72071
     1.30000     4.05398   360.00000     4.70417     3.29606   360.00000     4.72067
     1.40000     4.35982   360.00000     4.70411     3.54407   360.00000     4.72063
     1.50000     4.66602   360.00000     4.70404     3.79224   360.00000     4.72058
     1.60000     5.02311   360.00000     4.70395     4.08146   360.00000     4.72052
     1.70000     5.33019   360.00000     4.70388     4.33000   360.00000     4.72047
     1.80000     5.63772   360.00000     4.70379     4.57874   360.00000     4.72041
     1.90000     5.99645   360.00000     4.70369     4.86867   360.00000     4.72034
     2.00000     6.30502   360.00000     4.70360     5.11786   360.00000     4.72028
     2.10000     6.66505   360.00000     4.70349     5.40834   360.00000     4.72020
     2.20000     6.97479   360.00000     4.70339     5.65804   360.00000     4.72013
     2.30000     7.33624   360.00000     4.70326     5.94915   360.00000     4.72005
     2.40000     7.64727   360.00000     4.70315     6.19940   360.00000     4.71997
     2.50000     8.01029   360.00000     4.70301     6.49119   360.00000     4.71988
     2.60000     8.32271   360.00000     4.70289     6.74205   360.00000     4.71979
     2.70000     8.68742   360.00000     4.70275     7.03458   360.00000     4.71969
     2.80000     9.05309   360.00000     4.70259     7.32753   360.00000     4.71958
     2.90000     9.41977   360.00000     4.70243     7.62092   360.00000     4.71947
     3.00000     9.78749   360.00000     4.70227     7.91477   360.00000     4.71936
     3.10000    10.15629   360.00000     4.70210     8.20909   360.00000     4.71924
     3.20000    10.52620   360.00000     4.70192     8.50391   360.00000     4.71912
     3.30000    10.89727   360.00000     4.70174     8.79924   360.00000     4.71899
     3.40000    11.26952   360.00000     4.70155     9.09509   360.00000     4.71886
     3.50000    11.64299   360.00000     4.70136     9.39149   360.00000     4.71873
     3.60000    12.07078   360.00000     4.70113     9.73048   360.00000     4.71857
     3.70000    12.44699   360.00000     4.70092    10.02810   360.00000     4.71842
     3.80000    12.87800   360.00000     4.70068    10.36853   360.00000     4.71826
     3.90000    13.25709   360.00000     4.70046    10.66747   360.00000     4.71810
     4.00000    13.69148   360.00000     4.70021    11.00944   360.00000     4.71792
     4.10000    14.12774   360.00000     4.69995    11.35227   360.00000     4.71774
     4.20000    14.56591   360.00000     4.69968    11.69598   360.00000     4.71755
     4.30000    15.06070   360.00000     4.69937    12.08334   360.00000     4.71733
     4.40000    15.50309   360.00000     4.69909    12.42902   360.00000     4.71713
     4.50000    16.00272   360.00000     4.69877    12.81866   360.00000     4.71690
     4.60000    16.50500   360.00000     4.69844    13.20955   360.00000     4.71666
     4.70000    17.00998   360.00000     4.69810    13.60174   360.00000     4.71642
     4.80000    17.51771   360.00000     4.69775    13.99526   360.00000     4.71617
     4.90000    90.00000   360.00000     4.70146    90.00000   360.00000     4.67288
     5.00000    90.00000   360.00000     4.70144    90.00000   360.00000     4.67286
     5.10000    90.00000   360.00000     4.70142    90.00000   360.00000     4.67284
     5.20000    90.00000   360.00000     4.70140    90.00000   360.00000     4.67282
     5.30000    90.00000   360.00000     4.70138    90.00000   360.00000     4.67280
     5.40000    90.00000   360.00000     4.70136    90.00000   360.00000     4.67278
     5.50000    90.00000   360.00000     4.70134    90.00000   360.00000     4.67277
     5.60000    90.00000   360.00000     4.70132    90.00000   360.00000     4.67275
     5.70000    90.00000   360.00000     4.70130    90.00000   360.00000     4.67273
     5.80000    90.00000   360.00000     4.70129    90.00000   360.00000     4.67271
     5.90000    90.00000   360.00000     4.70127    90.00000   360.00000     4.67269
     6.00000    90.00000   360.00000     4.70125    90.00000   360.00000     4.67267
     6.10000    90.00000   360.00000     4.70123    90.00000   360.00000     4.67265
     6.20000    90.00000   360.00000     4.70121    90.00000   360.00000     4.67264
     6.30000    90.00000   360.00000     4.70119    90.00000   360.00000     4.67262
     6.40000    90.00000   360.00000     4.70117    90.00000   360.00000     4.67260
     6.50000    90.00000   360.00000     4.70115    90.00000   360.00000     4.67258
     6.60000    90.00000   360.00000     4.70113    90.00000   360.00000     4.67256
     6.70000    90.00000   360.00000     4.70111    90.00000   360.00000     4.67254
     6.80000    90.00000   360.00000     4.70109    90.00000   360.00000     4.67252
     6.90000    90.00000   360.00000     4.70107    90.00000   360.00000     4.67250
     7.00000    90.00000   360.00000     4.70105    90.00000   360.00000     4.67249
     7.10000    90.00000   360.00000     4.70103    90.00000   360.00000     4.67247
     7.20000    90.00000   360.00000     4.70102    90.00000   360.00000     4.67245
     7.30000    90.00000   360.00000     4.70100    90.00000   360.00000     4.67243
     7.40000    90.00000   360.00000     4.70098    90.00000   360.00000     4.67241
     7.50000    90.00000   360.00000     4.70096    90.00000   360.00000     4.67239
     7.60000    90.00000   360.00000     4.70094    90.00000   360.00000     4.67237
     7.70000    90.00000   360.00000     4.70092    90.00000   360.00000     4.67236
     7.80000    90.00000   360.00000     4.70090    90.00000   360.00000     4.67234
     7.90000    90.00000   360.00000     4.70088    90.00000   360.00000     4.67232
     8.00000    90.00000   360.00000     4.70086    90.00000   360.00000     4.67230
     8.10000    90.00000   360.00000     4.70084    90.00000   360.00000     4.67228
     8.20000    90.00000   360.00000     4.70082    90.00000   360.00000     4.67226
     8.30000    90.00000   360.00000     4.70080    90.00000   360.00000     4.67224
     8.40000    90.00000   360.00000     4.70078    90.00000   360.00000     4.67222
     8.50000    90.00000   360.00000     4.70076    90.00000   360.00000     4.67221
     8.60000    90.00000   360.00000     4.70075    90.00000   360.00000     4.67219
     8.70000    90.00000   360.00000     4.70073    90.00000   360.00000     4.67217
     8.80000    90.00000   360.00000     4.70071    90.00000   360.00000     4.67215
     8.90000    90.00000   360.00000     4.70069    90.00000   360.00000     4.67213
     9.00000    90.00000   360.00000     4.70067    90.00000   360.00000     4.67211
     9.10000    90.00000   360.00000     4.70065    90.00000   360.00000     4.67209
     9.20000    90.00000   360.00000     4.70063    90.00000   360.00000     4.67207
     9.30000    90.00000   360.00000     4.70061    90.00000   360.00000     4.67206
     9.40000    90.00000   360.00000     4.70059    90.00000   360.00000     4.67204
     9.50000    90.00000   360.00000     4.70057    90.00000   360.00000     4.67202
     9.60000    90.00000   360.00000     4.70055    90.00000   360.00000     4.67200
     9.70000    90.00000   360.00000     4.70053    90.00000   360.00000     4.67198
     9.80000    90.00000   360.00000     4.70051    90.00000   360.00000     4.67196
     9.90000    90.00000   360.00000     4.70049    90.00000   360.00000     4.67194
    10.00000    90.00000   360.00000     4.70047    90.00000   360.00000     4.67192
    10.10000    90.00000   360.00000     4.70046    90.00000   360.00000     4.67190
    10.20000    90.00000   360.00000     4.70044    90.00000   360.00000     4.67189
    10.30000    90.00000   360.00000     4.70042    90.00000   360.00000     4.67187
    10.40000    90.00000   360.00000     4.70040    90.00000   360.00000     4.67185
    10.50000    90.00000   360.00000     4.70038    90.00000   360.00000     4.67183
    10.60000    90.00000   360.00000     4.70036    90.00000   360.00000     4.67181
    10.70000    90.00000   360.00000     4.70034    90.00000   360.00000     4.67179
    10.80000    90.00000   360.00000     4.70032    90.00000   360.00000     4.67177
    10.90000    90.00000   360.00000     4.70030    90.00000   360.00000     4.67175
    11.00000    90.00000   360.00000     4.70028    90.00000   360.00000     4.67174
    11.10000    90.00000   360.00000     4.70026    90.00000   360.00000     4.67172
    11.20000    90.00000   360.00000     4.70024    90.00000   360.00000     4.67170
    11.30000    90.00000   360.00000     4.70022    90.00000   360.00000     4.67168
    11.40000    90.00000   360.00000     4.70020    90.00000   360.00000     4.67166
    11.50000    90.00000   360.00000     4.70018    90.00000   360.00000     4.67164
    11.60000    90.00000   360.00000     4.70016    90.00000   360.00000     4.67162
    11.70000    90.00000   360.00000     4.70015    90.00000   360.00000     4.67160
    11.80000    90.00000   360.00000     4.70013    90.00000   360.00000     4.67158
    11.90000    90.00000   360.00000     4.70011    90.00000   360.00000     4.67157
    12.00000    90.00000   360.00000     4.70009    90.00000   360.00000     4.67155
    12.10000    90.00000   360.00000     4.70007    90.00000   360.00000     4.67153
    12.20000    90.00000   360.00000     4.70005    90.00000   360.00000     4.67151
    12.30000    90.00000   360.00000     4.70003    90.00000   360.00000     4.67149
    12.40000    90.00000   360.00000     4.70001    90.00000   360.00000     4.67147
    12.50000    90.00000   360.00000     4.69999    90.00000   360.00000     4.67145
    12.60000    90.00000   360.00000     4.69997    90.00000   360.00000     4.67143
    12.70000    90.00000   360.00000     4.69995    90.00000   360.00000     4.67141
    12.80000    90.00000   360.00000     4.69993    90.00000   360.00000     4.67140
    12.90000    90.00000   360.00000     4.69991    90.00000   360.00000     4.67138
    13.00000    90.00000   360.00000     4.69989    90.00000   360.00000     4.67136
    13.10000    90.00000   360.00000     4.69987    90.00000   360.00000     4.67134
    13.20000    90.00000   360.00000     4.69985    90.00000   360.00000     4.67132
    13.30000    90.00000   360.00000     4.69983    90.00000   360.00000     4.67130
    13.40000    90.00000   360.00000     4.69982    90.00000   360.00000     4.67128
    13.50000    90.00000   360.00000     4.69980    90.00000   360.00000     4.67126
    13.60000    90.00000   360.00000     4.69978    90.00000   360.00000     4.67124
    13.70000    90.00000   360.00000     4.69976    90.00000   360.00000     4.67123
    13.80000    90.00000   360.00000     4.69974    90.00000   360.00000     4.67121
    13.90000    90.00000   360.00000     4.69972    90.00000   360.00000     4.67119
    14.00000    90.00000   360.00000     4.69970    90.00000   360.00000     4.67117
    14.10000    90.00000   360.00000     4.69968    90.00000   360.00000     4.67115
    14.20000    90.00000   360.00000     4.69966    90.00000   360.00000     4.67113
    14.30000    90.00000   360.00000     4.69964    90.00000   360.00000     4.67111
    14.40000    90.00000   360.00000     4.69962    90.00000   360.00000     4.67109
    14.50000    90.00000   360.00000     4.69960    90.00000   360.00000     4.67107
    14.60000    90.00000   360.00000     4.69958    90.00000   360.00000     4.67105
    14.70000    90.00000   360.00000     4.69956    90.00000   360.00000     4.67104
    14.80000    90.00000   360.00000     4.69954    90.00000   360.00000     4.67102
    14.90000    90.00000   360.00000     4.69952    90.00000   360.00000     4.67100
    15.00000    90.00000   360.00000     4.69950    90.00000   360.00000     4.67098
    15.10000    90.00000   360.00000     4.69948    90.00000   360.00000     4.67096
    15.20000    90.00000   360.00000     4.69947    90.00000   360.00000     4.67094
    15.30000    90.00000   360.00000     4.69945    90.00000   360.00000     4.67092
    15.40000    90.00000   360.00000     4.69943    90.00000   360.00000     4.67090
    15.50000    90.00000   360.00000     4.69941    90.00000   360.00000     4.67088
    15.60000    90.00000   360.00000     4.69939    90.00000   360.00000     4.67086
    15.70000    90.00000   360.00000     4.69937    90.00000   360.00000     4.67085
    15.80000    90.00000   360.00000     4.69935    90.00000   360.00000     4.67083
    15.90000    90.00000   360.00000     4.69933    90.00000   360.00000     4.67081
    16.00000    90.00000   360.00000     4.69931    90.00000   360.00000     4.67079
    16.10000    90.00000   360.00000     4.69929    90.00000   360.00000     4.67077
    16.20000    90.00000   360.00000     4.69927    90.00000   360.00000     4.67075
    16.30000    90.00000   360.00000     4.69925    90.00000   360.00000     4.67073
    16.40000    90.00000   360.00000     4.69923    90.00000   360.00000     4.67071
    16.50000    90.00000   360.00000     4.69921    90.00000   360.00000     4.67069
    16.60000    90.00000   360.00000     4.69919    90.00000   360.00000     4.67067
    16.70000    90.00000   360.00000     4.69917    90.00000   360.00000     4.67065
    16.80000    90.00000   360.00000     4.69915    90.00000   360.00000     4.67064
    16.90000    90.00000   360.00000     4.69913    90.00000   360.00000     4.67062
    17.00000    90.00000   360.00000     4.69911    90.00000   360.00000     4.67060
    17.10000    90.00000   360.00000     4.69909    90.00000   360.00000     4.67058
    17.20000    90.00000   360.00000     4.69908    90.00000   360.00000     4.67056
    17.30000    90.00000   360.00000     4.69906    90.00000   360.00000     4.67054
    17.40000    90.00000   360.00000     4.69904    90.00000   360.00000     4.67052
    17.50000    90.00000   360.00000     4.69902    90.00000   360.00000     4.67050
    17.60000    90.00000   360.00000     4.69900    90.00000   360.00000     4.67048
    17.70000    90.00000   360.00000     4.69898    90.00000   360.00000     4.67046
    17.80000    90.00000   360.00000     4.69896    90.00000   360.00000     4.67044
    17.90000    90.00000   360.00000     4.69894    90.00000   360.00000     4.67043
    18.00000    90.00000   360.00000     4.69892    90.00000   360.00000     4.67041
    18.10000    90.00000   360.00000     4.69890    90.00000   360.00000     4.67039
    18.20000    90.00000   360.00000     4.69888    90.00000   360.00000     4.67037
    18.30000    90.00000   360.00000     4.69886    90.00000   360.00000     4.67035
    18.40000    90.00000   360.00000     4.69884    90.00000   360.00000     4.67033
    18.50000    90.00000   360.00000     4.69882    90.00000   360.00000     4.67031
    18.60000    90.00000   360.00000     4.69880    90.00000   360.00000     4.67029
    18.70000    90.00000   360.00000     4.69878    90.00000   360.00000     4.67027
    18.80000    90.00000   360.00000     4.69876    90.00000   360.00000     4.67025
    18.90000    90.00000   360.00000     4.69874    90.00000   360.00000     4.67023
    19.00000    90.00000   360.00000     4.69872    90.00000   360.00000     4.67022
    19.10000    90.00000   360.00000     4.69870    90.00000   360.00000     4.67020
    19.20000    90.00000   360.00000     4.69868    90.00000   360.00000     4.67018
    19.30000    90.00000   360.00000     4.69866    90.00000   360.00000     4.67016
    19.40000    90.00000   360.00000     4.69865    90.00000   360.00000     4.67014
    19.50000    90.00000   360.00000     4.69863    90.00000   360.00000     4.67012
    19.60000    90.00000   360.00000     4.69861    90.00000   360.00000     4.67010
    19.70000    90.00000   360.00000     4.69859    90.00000   360.00000     4.67008
    19.80000    90.00000   360.00000     4.69857    90.00000   360.00000     4.67006
    19.90000    90.00000   360.00000     4.69855    90.00000   360.00000     4.67004
    20.00000    90.00000   360.00000     4.69853    90.00000   360.00000     4.67002
    20.10000    90.00000   360.00000     4.69851    90.00000   360.00000     4.67000
    20.20000    90.00000   360.00000     4.69849    90.00000   360.00000     4.66999
    20.30000    90.00000   360.00000     4.69847    90.00000   360.00000     4.66997
    20.40000    90.00000   360.00000     4.69845    90.00000   360.00000     4.66995
    20.50000    90.00000   360.00000     4.69843    90.00000   360.00000     4.66993
    20.60000    90.00000   360.00000     4.69841    90.00000   360.00000     4.66991
    20.70000    90.00000   360.00000     4.69839    90.00000   360.00000     4.66989
    20.80000    90.00000   360.00000     4.69837    90.00000   360.00000     4.66987
    20.90000    90.00000   360.00000     4.69835    90.00000   360.00000     4.66985
    21.00000    90.00000   360.00000     4.69833    90.00000   360.00000     4.66983
    21.10000    90.00000   360.00000     4.69831    90.00000   360.00000     4.66981
    21.20000    90.00000   360.00000     4.69829    90.00000   360.00000     4.66979
    21.30000    90.00000   360.00000     4.69827    90.00000   360.00000     4.66977
    21.40000    90.00000   360.00000     4.69825    90.00000   360.00000     4.66975
    21.50000    90.00000   360.00000     4.69823    90.00000   360.00000     4.66974
    21.60000    90.00000   360.00000     4.69821    90.00000   360.00000     4.66972
    21.70000    90.00000   360.00000     4.69819    90.00000   360.00000     4.66970
    21.80000    90.00000   360.00000     4.69817    90.00000   360.00000     4.66968
    21.90000    90.00000   360.00000     4.69816    90.00000   360.00000     4.66966
    22.00000    90.00000   360.00000     4.69814    90.00000   360.00000     4.66964
    22.10000    90.00000   360.00000     4.69812    90.00000   360.00000     4.66962
    22.20000    90.00000   360.00000     4.69810    90.00000   360.00000     4.66960
    22.30000    90.00000   360.00000     4.69808    90.00000   360.00000     4.66958
    22.40000    90.00000   360.00000     4.69806    90.00000   360.00000     4.66956
    22.50000    90.00000   360.00000     4.69804    90.00000   360.00000     4.66954
    22.60000    90.00000   360.00000     4.69802    90.00000   360.00000     4.66952
    22.70000    90.00000   360.00000     4.69800    90.00000   360.00000     4.66950
    22.80000    90.00000   360.00000     4.69798    90.00000   360.00000     4.66948
    22.90000    90.00000   360.00000     4.69796    90.00000   360.00000     4.66947
    23.00000    90.00000   360.00000     4.69794    90.00000   360.00000     4.66945
    23.10000    90.00000   360.00000     4.69792    90.00000   360.00000     4.66943
    23.20000    90.00000   360.00000     4.69790    90.00000   360.00000     4.66941
    23.30000    90.00000   360.00000     4.69788    90.00000   360.00000     4.66939
