 # applied field (T), theta (degree), phi (degree), abs for RE 3-4
     0.00000     0.00000     0.00000     0.27791     0.00000     0.00000     0.27791
     0.10000     0.07898   180.00000     0.27792     0.05930   360.00000     0.27792
     0.20000     0.15793   180.00000     0.27793     0.11861   360.00000     0.27792
     0.30000     0.20344   180.00000     0.27794     0.17713   360.00000     0.27792
     0.40000     0.28228   180.00000     0.27796     0.23650   360.00000     0.27793
     0.50000     0.36102   180.00000     0.27799     0.29591   360.00000     0.27794
     0.60000     0.43963   180.00000     0.27802     0.35539   360.00000     0.27795
     0.70000     0.48482   180.00000     0.27805     0.41406   360.00000     0.27796
     0.80000     0.56314   180.00000     0.27810     0.47368   360.00000     0.27798
     0.90000     0.64126   180.00000     0.27815     0.53340   360.00000     0.27800
     1.00000     0.71915   180.00000     0.27821     0.59322   360.00000     0.27802
     1.10000     0.76376   180.00000     0.27825     0.65218   360.00000     0.27804
     1.20000     0.84119   180.00000     0.27832     0.71223   360.00000     0.27807
     1.30000     0.91831   180.00000     0.27840     0.77243   360.00000     0.27809
     1.40000     0.99511   180.00000     0.27848     0.83279   360.00000     0.27812
     1.50000     1.07154   180.00000     0.27857     0.89333   360.00000     0.27816
     1.60000     1.11501   180.00000     0.27863     0.95284   360.00000     0.27818
     1.70000     1.19077   180.00000     0.27873     1.01371   360.00000     0.27822
     1.80000     1.26610   180.00000     0.27884     1.07478   360.00000     0.27826
     1.90000     1.34097   180.00000     0.27895     1.13608   360.00000     0.27830
     2.00000     1.38323   180.00000     0.27904     1.19618   360.00000     0.27833
     2.10000     1.45725   180.00000     0.27916     1.25789   360.00000     0.27838
     2.20000     1.53075   180.00000     0.27929     1.31986   360.00000     0.27843
     2.30000     1.60370   180.00000     0.27943     1.38210   360.00000     0.27848
     2.40000     1.64449   180.00000     0.27953     1.44292   360.00000     0.27851
     2.50000     1.71642   180.00000     0.27967     1.50565   360.00000     0.27857
     2.60000     1.78772   180.00000     0.27983     1.56870   360.00000     0.27863
     2.70000     1.85839   180.00000     0.27998     1.63205   360.00000     0.27868
     2.80000     1.92838   180.00000     0.28015     1.69574   360.00000     0.27875
     2.90000     1.96693   180.00000     0.28027     1.75765   360.00000     0.27879
     3.00000     2.03570   180.00000     0.28045     1.82194   360.00000     0.27886
     3.10000     2.10372   180.00000     0.28063     1.88659   360.00000     0.27892
     3.20000     2.17099   180.00000     0.28082     1.95162   360.00000     0.27899
     3.30000     2.20749   180.00000     0.28095     2.01454   360.00000     0.27904
     3.40000     2.27338   180.00000     0.28115     2.08024   360.00000     0.27912
     3.50000     2.33843   180.00000     0.28135     2.14636   360.00000     0.27919
     3.60000     2.40264   180.00000     0.28156     2.21289   360.00000     0.27927
     3.70000     2.43685   180.00000     0.28172     2.27694   360.00000     0.27933
     3.80000     2.49952   180.00000     0.28193     2.34423   360.00000     0.27941
     3.90000     2.56128   180.00000     0.28216     2.41198   360.00000     0.27950
     4.00000     2.62209   180.00000     0.28239     2.48019   360.00000     0.27958
     4.10000     2.68195   180.00000     0.28263     2.54888   360.00000     0.27967
     4.20000     2.71291   180.00000     0.28280     2.61453   360.00000     0.27973
     4.30000     2.77104   180.00000     0.28304     2.68407   360.00000     0.27983
     4.40000     2.82816   180.00000     0.28329     2.75412   360.00000     0.27992
     4.50000     2.88423   180.00000     0.28355     2.82469   360.00000     0.28002
     4.60000     2.91237   180.00000     0.28374     2.89174   360.00000     0.28008
     4.70000     2.96658   180.00000     0.28400     2.96324   360.00000     0.28018
     4.80000     3.01969   180.00000     0.28427     3.03528   360.00000     0.28029
     4.90000     3.07168   180.00000     0.28455     3.10788   360.00000     0.28039
     5.00000     3.12252   180.00000     0.28483     3.18106   360.00000     0.28049
     5.10000     3.14678   180.00000     0.28503     3.25006   360.00000     0.28057
     5.20000     3.19559   180.00000     0.28532     3.32425   360.00000     0.28068
     5.30000     3.24321   180.00000     0.28562     3.39904   360.00000     0.28079
     5.40000     3.28960   180.00000     0.28592     3.47445   360.00000     0.28090
     5.50000     3.33476   180.00000     0.28622     3.55047   360.00000     0.28102
     5.60000     3.35480   180.00000     0.28644     3.62158   360.00000     0.28110
     5.70000     3.39777   180.00000     0.28676     3.69871   360.00000     0.28122
     5.80000     3.43945   180.00000     0.28708     3.77649   360.00000     0.28134
     5.90000     3.47982   180.00000     0.28740     3.85493   360.00000     0.28146
     6.00000     3.49630   180.00000     0.28763     3.92783   360.00000     0.28154
     6.10000     3.53436   180.00000     0.28796     4.00744   360.00000     0.28167
     6.20000     3.57107   180.00000     0.28830     4.08773   360.00000     0.28179
     6.30000     3.60639   180.00000     0.28863     4.16872   360.00000     0.28192
     6.40000     3.64033   180.00000     0.28898     4.25042   360.00000     0.28205
     6.50000     3.65205   180.00000     0.28922     4.32573   360.00000     0.28214
     6.60000     3.68353   180.00000     0.28958     4.40867   360.00000     0.28227
     6.70000     3.71357   180.00000     0.28993     4.49235   360.00000     0.28241
     6.80000     3.74216   180.00000     0.29029     4.57677   360.00000     0.28254
     6.90000     3.76928   180.00000     0.29065     4.66194   360.00000     0.28268
     7.00000     3.77595   180.00000     0.29091     4.73980   360.00000     0.28278
     7.10000     3.80048   180.00000     0.29128     4.82629   360.00000     0.28292
     7.20000     3.82350   180.00000     0.29166     4.91356   360.00000     0.28306
     7.30000     3.84498   180.00000     0.29203     5.00161   360.00000     0.28320
     7.40000     3.86492   180.00000     0.29242     5.09045   360.00000     0.28335
     7.50000     3.86629   180.00000     0.29269     5.17102   360.00000     0.28345
     7.60000     3.88352   180.00000     0.29308     5.26125   360.00000     0.28359
     7.70000     3.89916   180.00000     0.29347     5.35230   360.00000     0.28374
     7.80000     3.91321   180.00000     0.29386     5.44417   360.00000     0.28389
     7.90000     3.92564   180.00000     0.29426     5.53687   360.00000     0.28404
     8.00000     3.92146   180.00000     0.29454     5.62028   360.00000     0.28415
     8.10000     3.93106   180.00000     0.29494     5.71444   360.00000     0.28430
     8.20000     3.93902   180.00000     0.29535     5.80944   360.00000     0.28446
     8.30000     3.94531   180.00000     0.29576     5.90531   360.00000     0.28461
     8.40000     3.94992   180.00000     0.29617     6.00204   360.00000     0.28477
     8.50000     3.95285   180.00000     0.29659     6.09965   360.00000     0.28493
     8.60000     3.94164   180.00000     0.29688     6.18668   360.00000     0.28504
     8.70000     3.94161   180.00000     0.29730     6.28582   360.00000     0.28520
     8.80000     3.93986   180.00000     0.29772     6.38585   360.00000     0.28536
     8.90000     3.93637   180.00000     0.29815     6.48678   360.00000     0.28552
     9.00000     3.93114   180.00000     0.29858     6.58862   360.00000     0.28569
     9.10000     3.91391   180.00000     0.29888     6.67875   360.00000     0.28580
     9.20000     3.90562   180.00000     0.29931     6.78218   360.00000     0.28597
     9.30000     3.89555   180.00000     0.29975     6.88652   360.00000     0.28613
     9.40000     3.88370   180.00000     0.30018     6.99180   360.00000     0.28630
     9.50000     3.87005   180.00000     0.30062     7.09802   360.00000     0.28647
     9.60000     3.85458   180.00000     0.30106     7.20518   360.00000     0.28664
     9.70000     3.82980   180.00000     0.30137     7.29922   360.00000     0.28675
     9.80000     3.81117   180.00000     0.30182     7.40803   360.00000     0.28693
     9.90000     3.79071   180.00000     0.30226     7.51780   360.00000     0.28710
    10.00000     3.76839   180.00000     0.30271     7.62853   360.00000     0.28727
    10.10000     3.74422   180.00000     0.30316     7.74023   360.00000     0.28744
    10.20000     3.71818   180.00000     0.30361     7.85291   360.00000     0.28762
    10.30000     3.69026   180.00000     0.30406     7.96656   360.00000     0.28779
    10.40000     3.65628   180.00000     0.30438     8.06537   360.00000     0.28791
    10.50000     3.62509   180.00000     0.30483     8.18074   360.00000     0.28809
    10.60000     3.59199   180.00000     0.30529     8.29710   360.00000     0.28826
    10.70000     3.55697   180.00000     0.30574     8.41446   360.00000     0.28844
    10.80000     3.52004   180.00000     0.30620     8.53283   360.00000     0.28862
    10.90000     3.48118   180.00000     0.30666     8.65220   360.00000     0.28880
    11.00000     3.44037   180.00000     0.30712     8.77259   360.00000     0.28898
    11.10000     3.39688   180.00000     0.30745     8.87633   360.00000     0.28910
    11.20000     3.35269   180.00000     0.30791     8.99848   360.00000     0.28928
    11.30000     3.30655   180.00000     0.30837     9.12166   360.00000     0.28946
    11.40000     3.25843   180.00000     0.30883     9.24587   360.00000     0.28964
    11.50000     3.20833   180.00000     0.30929     9.37111   360.00000     0.28982
    11.60000     3.15625   180.00000     0.30976     9.49738   360.00000     0.29001
    11.70000     3.10218   180.00000     0.31022     9.62470   360.00000     0.29019
    11.80000     3.04611   180.00000     0.31068     9.75307   360.00000     0.29037
    11.90000     2.99133   180.00000     0.31101     9.86264   360.00000     0.29050
    12.00000     2.93176   180.00000     0.31147     9.99281   360.00000     0.29068
    12.10000     2.87017   180.00000     0.31194    10.12405   360.00000     0.29086
    12.20000     2.80655   180.00000     0.31240    10.25634   360.00000     0.29105
    12.30000     2.74089   180.00000     0.31287    10.38969   360.00000     0.29123
    12.40000     2.67319   180.00000     0.31333    10.52410   360.00000     0.29142
    12.50000     2.60344   180.00000     0.31379    10.65958   360.00000     0.29160
    12.60000     2.53163   180.00000     0.31426    10.79613   360.00000     0.29179
    12.70000     2.45776   180.00000     0.31472    10.93375   360.00000     0.29197
    12.80000     2.38182   180.00000     0.31518    11.07245   360.00000     0.29216
    12.90000     2.31234   180.00000     0.31550    11.18957   360.00000     0.29228
    13.00000     2.23278   180.00000     0.31597    11.33013   360.00000     0.29247
    13.10000     2.15113   180.00000     0.31643    11.47177   360.00000     0.29265
    13.20000     2.06738   180.00000     0.31688    11.61450   360.00000     0.29284
    13.30000     1.98153   180.00000     0.31734    11.75831   360.00000     0.29302
    13.40000     1.89356   180.00000     0.31780    11.90322   360.00000     0.29321
    13.50000     1.80348   180.00000     0.31826    12.04921   360.00000     0.29339
    13.60000     1.71128   180.00000     0.31871    12.19629   360.00000     0.29358
    13.70000     1.61695   180.00000     0.31917    12.34447   360.00000     0.29377
    13.80000     1.52048   180.00000     0.31962    12.49375   360.00000     0.29395
    13.90000     1.42187   180.00000     0.32007    12.64412   360.00000     0.29414
    14.00000     1.32111   180.00000     0.32052    12.79560   360.00000     0.29432
    14.10000     1.21820   180.00000     0.32097    12.94817   360.00000     0.29451
    14.20000     1.11312   180.00000     0.32141    13.10185   360.00000     0.29469
    14.30000     1.00588   180.00000     0.32186    13.25663   360.00000     0.29487
    14.40000     0.89647   180.00000     0.32230    13.41252   360.00000     0.29506
    14.50000     0.78488   180.00000     0.32274    13.56951   360.00000     0.29524
    14.60000     0.67110   180.00000     0.32318    13.72761   360.00000     0.29543
    14.70000     0.55514   180.00000     0.32362    13.88683   360.00000     0.29561
    14.80000     0.43697   180.00000     0.32405    14.04715   360.00000     0.29579
    14.90000     0.31661   180.00000     0.32448    14.20858   360.00000     0.29598
    15.00000     0.19404   180.00000     0.32491    14.37113   360.00000     0.29616
    15.10000     0.06925   180.00000     0.32534    14.53478   360.00000     0.29634
    15.20000     0.05776   360.00000     0.32577    14.69956   360.00000     0.29652
    15.30000     0.18699   360.00000     0.32619    14.86544   360.00000     0.29670
    15.40000     0.31846   360.00000     0.32661    15.03244   360.00000     0.29689
    15.50000     0.45216   360.00000     0.32703    15.20056   360.00000     0.29707
    15.60000     0.58810   360.00000     0.32744    15.36980   360.00000     0.29725
    15.70000     0.72629   360.00000     0.32786    15.54015   360.00000     0.29743
    15.80000     0.86674   360.00000     0.32826    15.71162   360.00000     0.29761
    15.90000     1.00944   360.00000     0.32867    15.88420   360.00000     0.29779
    16.00000     1.15441   360.00000     0.32907    16.05791   360.00000     0.29796
    16.10000     1.30165   360.00000     0.32947    16.23273   360.00000     0.29814
    16.20000     1.45117   360.00000     0.32987    16.40868   360.00000     0.29832
    16.30000     1.60296   360.00000     0.33026    16.58574   360.00000     0.29850
    16.40000     1.75705   360.00000     0.33066    16.76392   360.00000     0.29867
    16.50000     1.94258   360.00000     0.33116    16.97673   360.00000     0.29890
    16.60000     2.10185   360.00000     0.33154    17.15746   360.00000     0.29908
    16.70000     2.26343   360.00000     0.33192    17.33931   360.00000     0.29925
    16.80000     2.42731   360.00000     0.33230    17.52228   360.00000     0.29943
    16.90000     2.59351   360.00000     0.33267    17.70636   360.00000     0.29960
    17.00000     2.76203   360.00000     0.33304    17.89157   360.00000     0.29977
    17.10000     2.93287   360.00000     0.33340    18.07790   360.00000     0.29994
    17.20000     3.10605   360.00000     0.33376    18.26535   360.00000     0.30012
    17.30000     3.31567   360.00000     0.33423    18.48997   360.00000     0.30034
    17.40000     3.49413   360.00000     0.33458    18.67996   360.00000     0.30051
    17.50000     3.67493   360.00000     0.33493    18.87108   360.00000     0.30068
    17.60000     3.85809   360.00000     0.33527    19.06332   360.00000     0.30085
    17.70000     4.04360   360.00000     0.33561    19.25667   360.00000     0.30101
    17.80000     4.26879   360.00000     0.33605    19.48882   360.00000     0.30123
    17.90000     4.45964   360.00000     0.33638    19.68472   360.00000     0.30140
    18.00000     4.65286   360.00000     0.33671    19.88174   360.00000     0.30156
    18.10000     4.84846   360.00000     0.33703    20.07988   360.00000     0.30173
    18.20000     5.04644   360.00000     0.33735    20.27914   360.00000     0.30189
    18.30000     5.28736   360.00000     0.33776    20.51882   360.00000     0.30210
    18.40000     5.49074   360.00000     0.33806    20.72062   360.00000     0.30227
    18.50000     5.69651   360.00000     0.33836    20.92354   360.00000     0.30243
    18.60000     5.94725   360.00000     0.33876    21.16789   360.00000     0.30264
    18.70000     6.15844   360.00000     0.33905    21.37336   360.00000     0.30279
    18.80000     6.37205   360.00000     0.33933    21.57994   360.00000     0.30295
    18.90000     6.63267   360.00000     0.33970    21.82897   360.00000     0.30316
    19.00000     6.85173   360.00000     0.33998    22.03810   360.00000     0.30331
    19.10000     7.07322   360.00000     0.34025    22.24834   360.00000     0.30347
    19.20000     7.34376   360.00000     0.34060    22.50204   360.00000     0.30367
    19.30000     7.57073   360.00000     0.34086    22.71483   360.00000     0.30382
    19.40000     7.80013   360.00000     0.34111    22.92874   360.00000     0.30398
    19.50000     8.08064   360.00000     0.34144    23.18711   360.00000     0.30418
    19.60000     8.31556   360.00000     0.34168    23.40357   360.00000     0.30432
    19.70000     8.60301   360.00000     0.34200    23.66519   360.00000     0.30452
    19.80000     8.84345   360.00000     0.34223    23.88419   360.00000     0.30467
    19.90000     9.13785   360.00000     0.34253    24.14907   360.00000     0.30486
    20.00000     9.38383   360.00000     0.34275    24.37061   360.00000     0.30501
    20.10000     9.68521   360.00000     0.34303    24.63874   360.00000     0.30520
    20.20000     9.93674   360.00000     0.34324    24.86284   360.00000     0.30534
    20.30000    10.24511   360.00000     0.34351    25.13422   360.00000     0.30553
    20.40000    10.50220   360.00000     0.34370    25.36087   360.00000     0.30567
    20.50000    10.81757   360.00000     0.34396    25.63552   360.00000     0.30585
    20.60000    11.08023   360.00000     0.34414    25.86471   360.00000     0.30599
    20.70000    11.40261   360.00000     0.34438    26.14263   360.00000     0.30617
    20.80000    11.72889   360.00000     0.34461    26.42237   360.00000     0.30635
    20.90000    12.00024   360.00000     0.34477    26.65556   360.00000     0.30649
    21.00000    12.33355   360.00000     0.34498    26.93858   360.00000     0.30666
    21.10000    12.67077   360.00000     0.34519    27.22344   360.00000     0.30684
    21.20000    12.95081   360.00000     0.34533    27.46063   360.00000     0.30697
    21.30000    13.29505   360.00000     0.34552    27.74877   360.00000     0.30714
    21.40000    13.64321   360.00000     0.34569    28.03876   360.00000     0.30731
    21.50000    13.99527   360.00000     0.34587    28.33060   360.00000     0.30748
    21.60000    14.28712   360.00000     0.34598    28.57325   360.00000     0.30760
    21.70000    14.64620   360.00000     0.34613    28.86838   360.00000     0.30777
    21.80000    15.00918   360.00000     0.34628    29.16537   360.00000     0.30793
    21.90000    15.37607   360.00000     0.34642    29.46423   360.00000     0.30809
    22.00000    15.74685   360.00000     0.34654    29.76494   360.00000     0.30825
    22.10000    16.12152   360.00000     0.34666    30.06752   360.00000     0.30841
    22.20000    16.50008   360.00000     0.34677    30.37197   360.00000     0.30856
    22.30000    16.88252   360.00000     0.34687    30.67829   360.00000     0.30872
    22.40000    17.26883   360.00000     0.34696    30.98649   360.00000     0.30887
    22.50000    17.65900   360.00000     0.34704    31.29658   360.00000     0.30902
    22.60000    18.05303   360.00000     0.34712    31.60854   360.00000     0.30917
    22.70000    18.45090   360.00000     0.34718    31.92241   360.00000     0.30931
    22.80000    18.85261   360.00000     0.34724    32.23816   360.00000     0.30946
    22.90000    19.33261   360.00000     0.34731    32.61219   360.00000     0.30964
    23.00000    19.74273   360.00000     0.34734    32.93217   360.00000     0.30978
    23.10000    20.15665   360.00000     0.34737    33.25406   360.00000     0.30991
    23.20000    20.57436   360.00000     0.34739    33.57787   360.00000     0.31005
    23.30000    21.07357   360.00000     0.34742    33.96175   360.00000     0.31022
