 # applied field (T), magnetization (2 f.u.), magnetization (T)
  0.000000000000000E+000  1.410528710572503E-015  4.715369390452039E-017
  0.100000000000000       0.248293086537896       8.300388438364040E-003
  0.200000000000000       0.496574133486266       1.660037439564778E-002
  0.300000000000000       0.744831101794431       2.489955540878440E-002
  0.400000000000000       0.993051953489381       3.319752905073347E-002
  0.500000000000000        1.27660745146558       4.267673288139251E-002
  0.600000000000000        1.52471039653057       5.097076492818181E-002
  0.700000000000000        1.77273940684377       5.926232535094189E-002
  0.800000000000000        2.02068245463445       6.755101206369261E-002
  0.900000000000000        2.26852751597974       7.583642310908675E-002
   1.00000000000000        2.51626257134308       8.411815667641057E-002
   1.10000000000000        2.76387560611266       9.239581111958386E-002
   1.20000000000000        3.01135461113958       0.100668984975151     
   1.30000000000000        3.29394261824269       0.110115845778587     
   1.40000000000000        3.54109404021950       0.118378068598022     
   1.50000000000000        3.78807373342476       0.126634550558823     
   1.60000000000000        4.03486971706924       0.134884891145590     
   1.70000000000000        4.28147001859242       0.143128690118010     
   1.80000000000000        4.52786267419968       0.151365547528811     
   1.90000000000000        4.80911930600865       0.160767900721291     
   2.00000000000000        5.05502681262046       0.168988539697786     
   2.10000000000000        5.30068913829273       0.177200982324297     
   2.20000000000000        5.54609436126090       0.185404830058608     
   2.30000000000000        5.79123057128604       0.193599684743805     
   2.40000000000000        6.03608587019071       0.201785148626185     
   2.50000000000000        6.31549623670467       0.211125781537515     
   2.60000000000000        6.55970964073926       0.219289787002213     
   2.70000000000000        6.80360482625401       0.227443154485163     
   2.80000000000000        7.04716995073618       0.235585488093521     
   2.90000000000000        7.29039318648582       0.243716392429634     
   3.00000000000000        7.56786411740829       0.252992190395355     
   3.10000000000000        7.81031505420625       0.261097276931308     
   3.20000000000000        8.05238703422627       0.269189695017638     
   3.30000000000000        8.29406829681274       0.277269051497972     
   3.40000000000000        8.56971759985093       0.286483952806277     
   3.50000000000000        8.81052217618816       0.294534001839880     
   3.60000000000000        9.05089919209042       0.302569757613286     
   3.70000000000000        9.32501316444344       0.311733333122529     
   3.80000000000000        9.56443475154348       0.319737149101338     
   3.90000000000000        9.80339212505473       0.327725446512317     
   4.00000000000000        10.0758391475309       0.336833296219129     
   4.10000000000000        10.3137627740469       0.344787035673916     
   4.20000000000000        10.5511857401291       0.352724038150100     
   4.30000000000000        10.8218349340958       0.361771786807857     
   4.40000000000000        11.0581462945688       0.369671628529891     
   4.50000000000000        11.2939207704905       0.377553522308286     
   4.60000000000000        11.5626420568040       0.386536821397116     
   4.70000000000000        11.7972275632065       0.394378968161255     
   4.80000000000000        12.0645602660012       0.403315847179572     
   4.90000000000000        12.2979043578123       0.411116493701133     
   5.00000000000000        12.5637886951359       0.420004954150176     
   5.10000000000000        12.7958391845745       0.427762355802030     
   5.20000000000000        13.0602156746938       0.436600409219302     
   5.30000000000000        13.2909206423168       0.444312830344807     
   5.40000000000000        13.5537301163212       0.453098498725411     
   5.50000000000000        13.7830379220460       0.460764213006884     
   5.60000000000000        14.0442215364229       0.469495529223911     
   5.70000000000000        14.2720808305243       0.477112820050270     
   5.80000000000000        14.5315800797050       0.485787828274208     
   5.90000000000000        14.7901572734677       0.494432012369142     
   6.00000000000000        15.0156965426628       0.501971745224886     
   6.10000000000000        15.2725003498655       0.510556645360265     
   6.20000000000000        15.5283348553321       0.519109141931632     
   6.30000000000000        15.7514352241071       0.526567342832011     
   6.40000000000000        16.0054081904435       0.535057608520961     
   6.50000000000000        16.2583650839262       0.543513907096748     
   6.60000000000000        16.5102897528174       0.551935698609994     
   6.70000000000000        16.7299169883415       0.559277793357429     
   6.80000000000000        16.9798627587645       0.567633430688961     
   6.90000000000000        17.2287302116242       0.575953020079084     
   7.00000000000000        17.4765034385188       0.584236029713096     
   7.10000000000000        17.7231665962609       0.592481929956399     
   7.20000000000000        17.9687039078698       0.600690193387667     
   7.30000000000000        18.2130996635615       0.608860294831948     
   7.40000000000000        18.4563382217373       0.616991711393717     
   7.50000000000000        18.6984040099714       0.625083922489878     
   7.60000000000000        18.9392815259959       0.633136409882700     
   7.70000000000000        19.1789553386846       0.641148657712712     
   7.80000000000000        19.4174100890353       0.649120152531525     
   7.90000000000000        19.6546304911499       0.657050383334611     
   8.00000000000000        19.9199587441430       0.665920253995221     
   8.10000000000000        20.1545059227952       0.673761119470299     
   8.20000000000000        20.3877714682513       0.681559140202854     
   8.30000000000000        20.6485948538728       0.690278414044324     
   8.40000000000000        20.8790874931887       0.697983737076803     
   8.50000000000000        21.1082519673087       0.705644659811271     
   8.60000000000000        21.3644069199794       0.714207868868857     
   8.70000000000000        21.5907004363879       0.721772816058749     
   8.80000000000000        21.8435888934887       0.730226826819918     
   8.90000000000000        22.0669457416109       0.737693601773797     
   9.00000000000000        22.3164942331944       0.746035958152836     
   9.10000000000000        22.5642451779946       0.754318222900871     
   9.20000000000000        22.7829854746982       0.761630667460160     
   9.30000000000000        23.0272858637950       0.769797580818166     
   9.40000000000000        23.2697307407100       0.777902464773436     
   9.50000000000000        23.5103003166573       0.785944657790802     
   9.60000000000000        23.7489749474157       0.793923503167859     
   9.70000000000000        23.9857351350198       0.801838349091504     
   9.80000000000000        24.2205615294459       0.809688548694300     
   9.90000000000000        24.4534349302930       0.817473460110670     
   10.0000000000000        24.6843362884589       0.825192446532913     
   10.1000000000000        24.9132467078099       0.832844876267044     
   10.2000000000000        25.1651931982635       0.841267397270779     
   10.3000000000000        25.3898393743177       0.848777274200671     
   10.4000000000000        25.6370024670262       0.857039887170343     
   10.5000000000000        25.8573023560697       0.864404468590980     
   10.6000000000000        26.0995917283776       0.872504154058202     
   10.7000000000000        26.3392803868802       0.880516898180816     
   10.8000000000000        26.5763440322704       0.888441888637822     
   10.9000000000000        26.7874721830348       0.895499860674229     
   11.0000000000000        27.0425003587275       0.904025401801826     
   11.1000000000000        27.2715457215765       0.911682342670225     
   11.2000000000000        27.4978714402819       0.919248366376487     
   11.3000000000000        27.7214545121447       0.926722703944966     
   11.4000000000000        27.9641669510491       0.934836532444262     
   11.5000000000000        28.1819169900346       0.942115872885231     
   11.6000000000000        28.4181594217512       0.950013410332664     
   11.7000000000000        28.6509703782410       0.957796234246602     
   11.8000000000000        28.8803211478691       0.965463384802808     
   11.9000000000000        29.1061834302660       0.973013915925564     
   12.0000000000000        29.3285293404437       0.980446895425277     
   12.1000000000000        29.5670163142946       0.988419467469285     
   12.2000000000000        29.8012511905001       0.996249892735759     
   12.3000000000000        30.0122283711104        1.00330281786998     
   12.4000000000000        30.2382173382539        1.01085758403859     
   12.5000000000000        30.4781014834483        1.01887686324238     
   12.6000000000000        30.6949893012723        1.02612737980162     
   12.7000000000000        30.9249382775049        1.03381452828549     
   12.8000000000000        31.1496624326736        1.04132701204165     
   12.9000000000000        31.3691228004860        1.04866352843471     
   13.0000000000000        31.5995110481787        1.05636536167602     
   13.1000000000000        31.8237044074058        1.06386010102955     
   13.2000000000000        32.0569645721551        1.07165794188615     
   13.3000000000000        32.2681835319558        1.07871894965056     
   13.4000000000000        32.5017817229157        1.08652809065607     
   13.5000000000000        32.7132356413168        1.09359695303970     
   13.6000000000000        32.9439341678031        1.10130915883928     
   13.7000000000000        33.1650995734633        1.10870267430806     
   13.8000000000000        33.3887940575373        1.11618073636457     
   13.9000000000000        33.6016523933261        1.12329654814180     
   14.0000000000000        33.8253352633232        1.13077422194203     
   14.1000000000000        34.0455953853265        1.13813747395844     
   14.2000000000000        34.2601899096993        1.14531132617429     
   14.3000000000000        34.4838283466678        1.15278751458722     
   14.4000000000000        34.7010618614179        1.16004958772586     
   14.5000000000000        34.9191465736785        1.16734011622778     
   14.6000000000000        35.1353159066378        1.17456661398107     
   14.7000000000000        35.3540393817565        1.18187849619812     
   14.8000000000000        35.5150063119556        1.18725958862004     
   14.9000000000000        35.5152611786117        1.18726810876160     
   15.0000000000000        35.5155160231235        1.18727662816288     
   15.1000000000000        35.5157708454991        1.18728514682415     
   15.2000000000000        35.5160256457464        1.18729366474568     
   15.3000000000000        35.5162804238735        1.18730218192773     
   15.4000000000000        35.5165351798886        1.18731069837058     
   15.5000000000000        35.5167899137997        1.18731921407451     
   15.6000000000000        35.5170446256150        1.18732772903977     
   15.7000000000000        35.5172993153423        1.18733624326663     
   15.8000000000000        35.5175539829900        1.18734475675538     
   15.9000000000000        35.5178086285659        1.18735326950627     
   16.0000000000000        35.5180632520783        1.18736178151959     
   16.1000000000000        35.5183178535351        1.18737029279559     
   16.2000000000000        35.5185724329445        1.18737880333455     
   16.3000000000000        35.5188269903145        1.18738731313674     
   16.4000000000000        35.5190815256533        1.18739582220242     
   16.5000000000000        35.5193360389689        1.18740433053188     
   16.6000000000000        35.5195905302693        1.18741283812537     
   16.7000000000000        35.5198449995627        1.18742134498318     
   16.8000000000000        35.5200994468572        1.18742985110556     
   16.9000000000000        35.5203538721608        1.18743835649280     
   17.0000000000000        35.5206082754816        1.18744686114515     
   17.1000000000000        35.5208626568278        1.18745536506290     
   17.2000000000000        35.5211170162073        1.18746386824630     
   17.3000000000000        35.5213713536283        1.18747237069564     
   17.4000000000000        35.5216256690988        1.18748087241117     
   17.5000000000000        35.5218799626270        1.18748937339318     
   17.6000000000000        35.5221342342209        1.18749787364193     
   17.7000000000000        35.5223884838887        1.18750637315769     
   17.8000000000000        35.5226427116383        1.18751487194073     
   17.9000000000000        35.5228969174780        1.18752336999133     
   18.0000000000000        35.5231511014157        1.18753186730975     
   18.1000000000000        35.5234052634596        1.18754036389627     
   18.2000000000000        35.5236594036177        1.18754885975114     
   18.3000000000000        35.5239135218982        1.18755735487466     
   18.4000000000000        35.5241676183091        1.18756584926707     
   18.5000000000000        35.5244216928586        1.18757434292867     
   18.6000000000000        35.5246757455547        1.18758283585970     
   18.7000000000000        35.5249297764055        1.18759132806046     
   18.8000000000000        35.5251837854191        1.18759981953120     
   18.9000000000000        35.5254377726036        1.18760831027220     
   19.0000000000000        35.5256917379670        1.18761680028373     
   19.1000000000000        35.5259456815176        1.18762528956605     
   19.2000000000000        35.5261996032634        1.18763377811945     
   19.3000000000000        35.5264535032124        1.18764226594418     
   19.4000000000000        35.5267073813727        1.18765075304053     
   19.5000000000000        35.5269612377526        1.18765923940875     
   19.6000000000000        35.5272150723600        1.18766772504913     
   19.7000000000000        35.5274688852031        1.18767620996193     
   19.8000000000000        35.5277226762899        1.18768469414742     
   19.9000000000000        35.5279764456286        1.18769317760588     
   20.0000000000000        35.5282301932272        1.18770166033757     
   20.1000000000000        35.5284839190938        1.18771014234277     
   20.2000000000000        35.5287376232366        1.18771862362174     
   20.3000000000000        35.5289913056636        1.18772710417476     
   20.4000000000000        35.5292449663830        1.18773558400209     
   20.5000000000000        35.5294986054028        1.18774406310401     
   20.6000000000000        35.5297522227312        1.18775254148080     
   20.7000000000000        35.5300058183762        1.18776101913271     
   20.8000000000000        35.5302593923460        1.18776949606002     
   20.9000000000000        35.5305129446486        1.18777797226301     
   21.0000000000000        35.5307664752921        1.18778644774193     
   21.1000000000000        35.5310199842847        1.18779492249707     
   21.2000000000000        35.5312734716345        1.18780339652869     
   21.3000000000000        35.5315269373495        1.18781186983707     
   21.4000000000000        35.5317803814379        1.18782034242248     
   21.5000000000000        35.5320338039078        1.18782881428518     
   21.6000000000000        35.5322872047672        1.18783728542545     
   21.7000000000000        35.5325405840243        1.18784575584356     
   21.8000000000000        35.5327939416872        1.18785422553977     
   21.9000000000000        35.5330472777640        1.18786269451437     
   22.0000000000000        35.5333005922628        1.18787116276762     
   22.1000000000000        35.5335538851917        1.18787963029979     
   22.2000000000000        35.5338071565588        1.18788809711116     
   22.3000000000000        35.5340604063722        1.18789656320199     
   22.4000000000000        35.5343136346401        1.18790502857256     
   22.5000000000000        35.5345668413705        1.18791349322313     
   22.6000000000000        35.5348200265715        1.18792195715398     
   22.7000000000000        35.5350731902513        1.18793042036539     
   22.8000000000000        35.5353263324180        1.18793888285761     
   22.9000000000000        35.5355794530797        1.18794734463092     
   23.0000000000000        35.5358325522445        1.18795580568560     
   23.1000000000000        35.5360856299204        1.18796426602191     
   23.2000000000000        35.5363386861157        1.18797272564013     
   23.3000000000000        35.5365917208384        1.18798118454052     
   23.4000000000000        35.5368447340967        1.18798964272336     
   23.5000000000000        35.5370977258986        1.18799810018891     
   23.6000000000000        35.5373506962523        1.18800655693746     
   23.7000000000000        35.5376036451659        1.18801501296927     
   23.8000000000000        35.5378565726475        1.18802346828461     
   23.9000000000000        35.5381094787053        1.18803192288376     
   24.0000000000000        35.5383623633472        1.18804037676698     
   24.1000000000000        35.5386152265815        1.18804882993455     
   24.2000000000000        35.5388680684163        1.18805728238674     
   24.3000000000000        35.5391208888597        1.18806573412381     
   24.4000000000000        35.5393736879197        1.18807418514605     
   24.5000000000000        35.5396264656047        1.18808263545372     
   24.6000000000000        35.5398792219225        1.18809108504709     
   24.7000000000000        35.5401319568814        1.18809953392644     
   24.8000000000000        35.5403846704895        1.18810798209203     
   24.9000000000000        35.5406373627549        1.18811642954414     
   25.0000000000000        35.5408900336857        1.18812487628304     
   25.1000000000000        35.5411426832900        1.18813332230900     
   25.2000000000000        35.5413953115761        1.18814176762230     
   25.3000000000000        35.5416479185519        1.18815021222320     
   25.4000000000000        35.5419005042256        1.18815865611197     
   25.5000000000000        35.5421530686054        1.18816709928889     
   25.6000000000000        35.5424056116993        1.18817554175423     
   25.7000000000000        35.5426581335155        1.18818398350826     
   25.8000000000000        35.5429106340621        1.18819242455125     
   25.9000000000000        35.5431631133472        1.18820086488347     
   26.0000000000000        35.5434155713790        1.18820930450520     
   26.1000000000000        35.5436680081656        1.18821774341671     
   26.2000000000000        35.5439204237151        1.18822618161826     
   26.3000000000000        35.5441728180356        1.18823461911013     
   26.4000000000000        35.5444251911353        1.18824305589260     
   26.5000000000000        35.5446775430223        1.18825149196593     
   26.6000000000000        35.5449298737047        1.18825992733039     
   26.7000000000000        35.5451821831906        1.18826836198626     
   26.8000000000000        35.5454344714882        1.18827679593381     
   26.9000000000000        35.5456867386057        1.18828522917331     
   27.0000000000000        35.5459389845510        1.18829366170503     
   27.1000000000000        35.5461912093324        1.18830209352925     
   27.2000000000000        35.5464434129581        1.18831052464623     
