 # applied field (T), theta (degree), phi (degree), abs for RE 1-2
     0.00000     0.00000     0.00000     0.31087     0.00000     0.00000     0.00000
     0.10000     0.16074   360.00000     0.31088     0.00000     0.00000     0.00000
     0.20000     0.32155   360.00000     0.31088     0.00000     0.00000     0.00000
     0.30000     0.50069   360.00000     0.31090     0.00000     0.00000     0.00000
     0.40000     0.66185   360.00000     0.31092     0.00000     0.00000     0.00000
     0.50000     0.82328   360.00000     0.31095     0.00000     0.00000     0.00000
     0.60000     0.98503   360.00000     0.31098     0.00000     0.00000     0.00000
     0.70000     1.14717   360.00000     0.31101     0.00000     0.00000     0.00000
     0.80000     1.32828   360.00000     0.31106     0.00000     0.00000     0.00000
     0.90000     1.49149   360.00000     0.31111     0.00000     0.00000     0.00000
     1.00000     1.65527   360.00000     0.31116     0.00000     0.00000     0.00000
     1.10000     1.81971   360.00000     0.31122     0.00000     0.00000     0.00000
     1.20000     2.00385   360.00000     0.31130     0.00000     0.00000     0.00000
     1.30000     2.16992   360.00000     0.31137     0.00000     0.00000     0.00000
     1.40000     2.33683   360.00000     0.31144     0.00000     0.00000     0.00000
     1.50000     2.50464   360.00000     0.31152     0.00000     0.00000     0.00000
     1.60000     2.69306   360.00000     0.31162     0.00000     0.00000     0.00000
     1.70000     2.86306   360.00000     0.31171     0.00000     0.00000     0.00000
     1.80000     3.03415   360.00000     0.31181     0.00000     0.00000     0.00000
     1.90000     3.22665   360.00000     0.31193     0.00000     0.00000     0.00000
     2.00000     3.40034   360.00000     0.31203     0.00000     0.00000     0.00000
     2.10000     3.59604   360.00000     0.31216     0.00000     0.00000     0.00000
     2.20000     3.77260   360.00000     0.31228     0.00000     0.00000     0.00000
     2.30000     3.95057   360.00000     0.31240     0.00000     0.00000     0.00000
     2.40000     4.15152   360.00000     0.31255     0.00000     0.00000     0.00000
     2.50000     4.33276   360.00000     0.31268     0.00000     0.00000     0.00000
     2.60000     4.53770   360.00000     0.31284     0.00000     0.00000     0.00000
     2.70000     4.72248   360.00000     0.31298     0.00000     0.00000     0.00000
     2.80000     4.93171   360.00000     0.31315     0.00000     0.00000     0.00000
     2.90000     5.14338   360.00000     0.31333     0.00000     0.00000     0.00000
     3.00000     5.33412   360.00000     0.31348     0.00000     0.00000     0.00000
     3.10000     5.55055   360.00000     0.31367     0.00000     0.00000     0.00000
     3.20000     5.76967   360.00000     0.31386     0.00000     0.00000     0.00000
     3.30000     5.96696   360.00000     0.31403     0.00000     0.00000     0.00000
     3.40000     6.19128   360.00000     0.31423     0.00000     0.00000     0.00000
     3.50000     6.41853   360.00000     0.31443     0.00000     0.00000     0.00000
     3.60000     6.64879   360.00000     0.31464     0.00000     0.00000     0.00000
     3.70000     6.88213   360.00000     0.31486     0.00000     0.00000     0.00000
     3.80000     7.11863   360.00000     0.31508     0.00000     0.00000     0.00000
     3.90000     7.35837   360.00000     0.31530     0.00000     0.00000     0.00000
     4.00000     7.60142   360.00000     0.31553     0.00000     0.00000     0.00000
     4.10000     7.84785   360.00000     0.31576     0.00000     0.00000     0.00000
     4.20000     8.09774   360.00000     0.31600     0.00000     0.00000     0.00000
     4.30000     8.35116   360.00000     0.31624     0.00000     0.00000     0.00000
     4.40000     8.63803   360.00000     0.31652     0.00000     0.00000     0.00000
     4.50000     8.89925   360.00000     0.31676     0.00000     0.00000     0.00000
     4.60000     9.19523   360.00000     0.31705     0.00000     0.00000     0.00000
     4.70000     9.46454   360.00000     0.31730     0.00000     0.00000     0.00000
     4.80000     9.76996   360.00000     0.31760     0.00000     0.00000     0.00000
     4.90000    10.08056   360.00000     0.31789     0.00000     0.00000     0.00000
     5.00000    10.36282   360.00000     0.31815     0.00000     0.00000     0.00000
     5.10000    10.68333   360.00000     0.31845     0.00000     0.00000     0.00000
     5.20000    11.00924   360.00000     0.31876     0.00000     0.00000     0.00000
     5.30000    11.37631   360.00000     0.31911     0.00000     0.00000     0.00000
     5.40000    11.71397   360.00000     0.31941     0.00000     0.00000     0.00000
     5.50000    12.05727   360.00000     0.31972     0.00000     0.00000     0.00000
     5.60000    12.44420   360.00000     0.32007     0.00000     0.00000     0.00000
     5.70000    12.83846   360.00000     0.32043     0.00000     0.00000     0.00000
     5.80000    13.24013   360.00000     0.32078     0.00000     0.00000     0.00000
     5.90000    13.64929   360.00000     0.32113     0.00000     0.00000     0.00000
     6.00000    14.06601   360.00000     0.32149     0.00000     0.00000     0.00000
     6.10000    14.53262   360.00000     0.32188     0.00000     0.00000     0.00000
     6.20000    15.00875   360.00000     0.32227     0.00000     0.00000     0.00000
     6.30000    15.49445   360.00000     0.32266     0.00000     0.00000     0.00000
     6.40000    15.98979   360.00000     0.32305     0.00000     0.00000     0.00000
     6.50000    16.54109   360.00000     0.32348     0.00000     0.00000     0.00000
     6.60000    17.10419   360.00000     0.32390     0.00000     0.00000     0.00000
     6.70000    17.72767   360.00000     0.32436     0.00000     0.00000     0.00000
     6.80000    18.36526   360.00000     0.32481     0.00000     0.00000     0.00000
     6.90000    19.06800   360.00000     0.32529     0.00000     0.00000     0.00000
     7.00000    90.00000   360.00000     0.33189     0.00000     0.00000     0.00000
     7.10000    90.00000   360.00000     0.33192     0.00000     0.00000     0.00000
     7.20000    90.00000   360.00000     0.33194     0.00000     0.00000     0.00000
     7.30000    90.00000   360.00000     0.33196     0.00000     0.00000     0.00000
     7.40000    90.00000   360.00000     0.33199     0.00000     0.00000     0.00000
     7.50000    90.00000   360.00000     0.33201     0.00000     0.00000     0.00000
     7.60000    90.00000   360.00000     0.33203     0.00000     0.00000     0.00000
     7.70000    90.00000   360.00000     0.33206     0.00000     0.00000     0.00000
     7.80000    90.00000   360.00000     0.33208     0.00000     0.00000     0.00000
     7.90000    90.00000   360.00000     0.33210     0.00000     0.00000     0.00000
     8.00000    90.00000   360.00000     0.33213     0.00000     0.00000     0.00000
     8.10000    90.00000   360.00000     0.33215     0.00000     0.00000     0.00000
     8.20000    90.00000   360.00000     0.33217     0.00000     0.00000     0.00000
     8.30000    90.00000   360.00000     0.33220     0.00000     0.00000     0.00000
     8.40000    90.00000   360.00000     0.33222     0.00000     0.00000     0.00000
     8.50000    90.00000   360.00000     0.33224     0.00000     0.00000     0.00000
     8.60000    90.00000   360.00000     0.33227     0.00000     0.00000     0.00000
     8.70000    90.00000   360.00000     0.33229     0.00000     0.00000     0.00000
     8.80000    90.00000   360.00000     0.33231     0.00000     0.00000     0.00000
     8.90000    90.00000   360.00000     0.33234     0.00000     0.00000     0.00000
     9.00000    90.00000   360.00000     0.33236     0.00000     0.00000     0.00000
     9.10000    90.00000   360.00000     0.33238     0.00000     0.00000     0.00000
     9.20000    90.00000   360.00000     0.33241     0.00000     0.00000     0.00000
     9.30000    90.00000   360.00000     0.33243     0.00000     0.00000     0.00000
     9.40000    90.00000   360.00000     0.33245     0.00000     0.00000     0.00000
     9.50000    90.00000   360.00000     0.33248     0.00000     0.00000     0.00000
     9.60000    90.00000   360.00000     0.33250     0.00000     0.00000     0.00000
     9.70000    90.00000   360.00000     0.33252     0.00000     0.00000     0.00000
     9.80000    90.00000   360.00000     0.33255     0.00000     0.00000     0.00000
     9.90000    90.00000   360.00000     0.33257     0.00000     0.00000     0.00000
    10.00000    90.00000   360.00000     0.33259     0.00000     0.00000     0.00000
    10.10000    90.00000   360.00000     0.33262     0.00000     0.00000     0.00000
    10.20000    90.00000   360.00000     0.33264     0.00000     0.00000     0.00000
    10.30000    90.00000   360.00000     0.33266     0.00000     0.00000     0.00000
    10.40000    90.00000   360.00000     0.33269     0.00000     0.00000     0.00000
    10.50000    90.00000   360.00000     0.33271     0.00000     0.00000     0.00000
    10.60000    90.00000   360.00000     0.33273     0.00000     0.00000     0.00000
    10.70000    90.00000   360.00000     0.33276     0.00000     0.00000     0.00000
    10.80000    90.00000   360.00000     0.33278     0.00000     0.00000     0.00000
    10.90000    90.00000   360.00000     0.33281     0.00000     0.00000     0.00000
    11.00000    90.00000   360.00000     0.33283     0.00000     0.00000     0.00000
    11.10000    90.00000   360.00000     0.33285     0.00000     0.00000     0.00000
    11.20000    90.00000   360.00000     0.33288     0.00000     0.00000     0.00000
    11.30000    90.00000   360.00000     0.33290     0.00000     0.00000     0.00000
    11.40000    90.00000   360.00000     0.33292     0.00000     0.00000     0.00000
    11.50000    90.00000   360.00000     0.33295     0.00000     0.00000     0.00000
    11.60000    90.00000   360.00000     0.33297     0.00000     0.00000     0.00000
    11.70000    90.00000   360.00000     0.33299     0.00000     0.00000     0.00000
    11.80000    90.00000   360.00000     0.33302     0.00000     0.00000     0.00000
    11.90000    90.00000   360.00000     0.33304     0.00000     0.00000     0.00000
    12.00000    90.00000   360.00000     0.33306     0.00000     0.00000     0.00000
    12.10000    90.00000   360.00000     0.33309     0.00000     0.00000     0.00000
    12.20000    90.00000   360.00000     0.33311     0.00000     0.00000     0.00000
    12.30000    90.00000   360.00000     0.33313     0.00000     0.00000     0.00000
    12.40000    90.00000   360.00000     0.33316     0.00000     0.00000     0.00000
    12.50000    90.00000   360.00000     0.33318     0.00000     0.00000     0.00000
    12.60000    90.00000   360.00000     0.33320     0.00000     0.00000     0.00000
    12.70000    90.00000   360.00000     0.33323     0.00000     0.00000     0.00000
    12.80000    90.00000   360.00000     0.33325     0.00000     0.00000     0.00000
    12.90000    90.00000   360.00000     0.33327     0.00000     0.00000     0.00000
    13.00000    90.00000   360.00000     0.33330     0.00000     0.00000     0.00000
    13.10000    90.00000   360.00000     0.33332     0.00000     0.00000     0.00000
    13.20000    90.00000   360.00000     0.33334     0.00000     0.00000     0.00000
    13.30000    90.00000   360.00000     0.33337     0.00000     0.00000     0.00000
    13.40000    90.00000   360.00000     0.33339     0.00000     0.00000     0.00000
    13.50000    90.00000   360.00000     0.33341     0.00000     0.00000     0.00000
    13.60000    90.00000   360.00000     0.33344     0.00000     0.00000     0.00000
    13.70000    90.00000   360.00000     0.33346     0.00000     0.00000     0.00000
    13.80000    90.00000   360.00000     0.33348     0.00000     0.00000     0.00000
    13.90000    90.00000   360.00000     0.33351     0.00000     0.00000     0.00000
    14.00000    90.00000   360.00000     0.33353     0.00000     0.00000     0.00000
    14.10000    90.00000   360.00000     0.33356     0.00000     0.00000     0.00000
    14.20000    90.00000   360.00000     0.33358     0.00000     0.00000     0.00000
    14.30000    90.00000   360.00000     0.33360     0.00000     0.00000     0.00000
    14.40000    90.00000   360.00000     0.33363     0.00000     0.00000     0.00000
    14.50000    90.00000   360.00000     0.33365     0.00000     0.00000     0.00000
    14.60000    90.00000   360.00000     0.33367     0.00000     0.00000     0.00000
    14.70000    90.00000   360.00000     0.33370     0.00000     0.00000     0.00000
    14.80000    90.00000   360.00000     0.33372     0.00000     0.00000     0.00000
    14.90000    90.00000   360.00000     0.33374     0.00000     0.00000     0.00000
    15.00000    90.00000   360.00000     0.33377     0.00000     0.00000     0.00000
    15.10000    90.00000   360.00000     0.33379     0.00000     0.00000     0.00000
    15.20000    90.00000   360.00000     0.33381     0.00000     0.00000     0.00000
    15.30000    90.00000   360.00000     0.33384     0.00000     0.00000     0.00000
    15.40000    90.00000   360.00000     0.33386     0.00000     0.00000     0.00000
    15.50000    90.00000   360.00000     0.33388     0.00000     0.00000     0.00000
    15.60000    90.00000   360.00000     0.33391     0.00000     0.00000     0.00000
    15.70000    90.00000   360.00000     0.33393     0.00000     0.00000     0.00000
    15.80000    90.00000   360.00000     0.33396     0.00000     0.00000     0.00000
    15.90000    90.00000   360.00000     0.33398     0.00000     0.00000     0.00000
    16.00000    90.00000   360.00000     0.33400     0.00000     0.00000     0.00000
    16.10000    90.00000   360.00000     0.33403     0.00000     0.00000     0.00000
    16.20000    90.00000   360.00000     0.33405     0.00000     0.00000     0.00000
    16.30000    90.00000   360.00000     0.33407     0.00000     0.00000     0.00000
    16.40000    90.00000   360.00000     0.33410     0.00000     0.00000     0.00000
    16.50000    90.00000   360.00000     0.33412     0.00000     0.00000     0.00000
    16.60000    90.00000   360.00000     0.33414     0.00000     0.00000     0.00000
    16.70000    90.00000   360.00000     0.33417     0.00000     0.00000     0.00000
    16.80000    90.00000   360.00000     0.33419     0.00000     0.00000     0.00000
    16.90000    90.00000   360.00000     0.33421     0.00000     0.00000     0.00000
    17.00000    90.00000   360.00000     0.33424     0.00000     0.00000     0.00000
    17.10000    90.00000   360.00000     0.33426     0.00000     0.00000     0.00000
    17.20000    90.00000   360.00000     0.33428     0.00000     0.00000     0.00000
    17.30000    90.00000   360.00000     0.33431     0.00000     0.00000     0.00000
    17.40000    90.00000   360.00000     0.33433     0.00000     0.00000     0.00000
    17.50000    90.00000   360.00000     0.33436     0.00000     0.00000     0.00000
    17.60000    90.00000   360.00000     0.33438     0.00000     0.00000     0.00000
    17.70000    90.00000   360.00000     0.33440     0.00000     0.00000     0.00000
    17.80000    90.00000   360.00000     0.33443     0.00000     0.00000     0.00000
    17.90000    90.00000   360.00000     0.33445     0.00000     0.00000     0.00000
    18.00000    90.00000   360.00000     0.33447     0.00000     0.00000     0.00000
    18.10000    90.00000   360.00000     0.33450     0.00000     0.00000     0.00000
    18.20000    90.00000   360.00000     0.33452     0.00000     0.00000     0.00000
    18.30000    90.00000   360.00000     0.33454     0.00000     0.00000     0.00000
    18.40000    90.00000   360.00000     0.33457     0.00000     0.00000     0.00000
    18.50000    90.00000   360.00000     0.33459     0.00000     0.00000     0.00000
    18.60000    90.00000   360.00000     0.33462     0.00000     0.00000     0.00000
    18.70000    90.00000   360.00000     0.33464     0.00000     0.00000     0.00000
    18.80000    90.00000   360.00000     0.33466     0.00000     0.00000     0.00000
    18.90000    90.00000   360.00000     0.33469     0.00000     0.00000     0.00000
    19.00000    90.00000   360.00000     0.33471     0.00000     0.00000     0.00000
    19.10000    90.00000   360.00000     0.33473     0.00000     0.00000     0.00000
    19.20000    90.00000   360.00000     0.33476     0.00000     0.00000     0.00000
    19.30000    90.00000   360.00000     0.33478     0.00000     0.00000     0.00000
    19.40000    90.00000   360.00000     0.33480     0.00000     0.00000     0.00000
    19.50000    90.00000   360.00000     0.33483     0.00000     0.00000     0.00000
    19.60000    90.00000   360.00000     0.33485     0.00000     0.00000     0.00000
    19.70000    90.00000   360.00000     0.33488     0.00000     0.00000     0.00000
    19.80000    90.00000   360.00000     0.33490     0.00000     0.00000     0.00000
    19.90000    90.00000   360.00000     0.33492     0.00000     0.00000     0.00000
    20.00000    90.00000   360.00000     0.33495     0.00000     0.00000     0.00000
    20.10000    90.00000   360.00000     0.33497     0.00000     0.00000     0.00000
    20.20000    90.00000   360.00000     0.33499     0.00000     0.00000     0.00000
    20.30000    90.00000   360.00000     0.33502     0.00000     0.00000     0.00000
    20.40000    90.00000   360.00000     0.33504     0.00000     0.00000     0.00000
    20.50000    90.00000   360.00000     0.33506     0.00000     0.00000     0.00000
    20.60000    90.00000   360.00000     0.33509     0.00000     0.00000     0.00000
    20.70000    90.00000   360.00000     0.33511     0.00000     0.00000     0.00000
    20.80000    90.00000   360.00000     0.33514     0.00000     0.00000     0.00000
    20.90000    90.00000   360.00000     0.33516     0.00000     0.00000     0.00000
    21.00000    90.00000   360.00000     0.33518     0.00000     0.00000     0.00000
    21.10000    90.00000   360.00000     0.33521     0.00000     0.00000     0.00000
    21.20000    90.00000   360.00000     0.33523     0.00000     0.00000     0.00000
    21.30000    90.00000   360.00000     0.33525     0.00000     0.00000     0.00000
    21.40000    90.00000   360.00000     0.33528     0.00000     0.00000     0.00000
    21.50000    90.00000   360.00000     0.33530     0.00000     0.00000     0.00000
    21.60000    90.00000   360.00000     0.33533     0.00000     0.00000     0.00000
    21.70000    90.00000   360.00000     0.33535     0.00000     0.00000     0.00000
    21.80000    90.00000   360.00000     0.33537     0.00000     0.00000     0.00000
    21.90000    90.00000   360.00000     0.33540     0.00000     0.00000     0.00000
    22.00000    90.00000   360.00000     0.33542     0.00000     0.00000     0.00000
    22.10000    90.00000   360.00000     0.33544     0.00000     0.00000     0.00000
    22.20000    90.00000   360.00000     0.33547     0.00000     0.00000     0.00000
    22.30000    90.00000   360.00000     0.33549     0.00000     0.00000     0.00000
    22.40000    90.00000   360.00000     0.33552     0.00000     0.00000     0.00000
    22.50000    90.00000   360.00000     0.33554     0.00000     0.00000     0.00000
    22.60000    90.00000   360.00000     0.33556     0.00000     0.00000     0.00000
    22.70000    90.00000   360.00000     0.33559     0.00000     0.00000     0.00000
    22.80000    90.00000   360.00000     0.33561     0.00000     0.00000     0.00000
    22.90000    90.00000   360.00000     0.33563     0.00000     0.00000     0.00000
    23.00000    90.00000   360.00000     0.33566     0.00000     0.00000     0.00000
    23.10000    90.00000   360.00000     0.33568     0.00000     0.00000     0.00000
    23.20000    90.00000   360.00000     0.33571     0.00000     0.00000     0.00000
    23.30000    90.00000   360.00000     0.33573     0.00000     0.00000     0.00000
