 # applied field (T), theta (degree), phi (degree), abs
     0.00000     0.00000     0.00000    44.45640
     0.10000     0.22930     0.00000    44.45640
     0.20000     0.45860     0.00000    44.45640
     0.30000     0.68790     0.00000    44.45640
     0.40000     0.91720     0.00000    44.45640
     0.50000     1.14650     0.00000    44.45640
     0.60000     1.37580     0.00000    44.45640
     0.70000     1.60510     0.00000    44.45640
     0.80000     1.83439     0.00000    44.45640
     0.90000     2.06369     0.00000    44.45640
     1.00000     2.29299     0.00000    44.45640
     1.10000     2.52229     0.00000    44.45640
     1.20000     2.75159     0.00000    44.45640
     1.30000     2.98089     0.00000    44.45640
     1.40000     3.21019     0.00000    44.45640
     1.50000     3.43949     0.00000    44.45640
     1.60000     3.66879     0.00000    44.45640
     1.70000     3.89809     0.00000    44.45640
     1.80000     4.12739     0.00000    44.45640
     1.90000     4.35669     0.00000    44.45640
     2.00000     4.52866     0.00000    44.45640
     2.10000     4.75796     0.00000    44.45640
     2.20000     4.98726     0.00000    44.45640
     2.30000     5.21656     0.00000    44.45640
     2.40000     5.44586     0.00000    44.45640
     2.50000     5.67516     0.00000    44.45640
     2.60000     5.90446     0.00000    44.45640
     2.70000     6.13376     0.00000    44.45640
     2.80000     6.36306     0.00000    44.45640
     2.90000     6.59236     0.00000    44.45640
     3.00000     6.82166     0.00000    44.45640
     3.10000     7.05096     0.00000    44.45640
     3.20000     7.28025     0.00000    44.45640
     3.30000     7.50955     0.00000    44.45640
     3.40000     7.73885     0.00000    44.45640
     3.50000     7.96815     0.00000    44.45640
     3.60000     8.19745     0.00000    44.45640
     3.70000     8.42675     0.00000    44.45640
     3.80000     8.65605     0.00000    44.45640
     3.90000     8.88535     0.00000    44.45640
     4.00000     9.11465     0.00000    44.45640
     4.10000     9.34395     0.00000    44.45640
     4.20000     9.57325     0.00000    44.45640
     4.30000     9.80255     0.00000    44.45640
     4.40000    10.03185     0.00000    44.45640
     4.50000    10.26115     0.00000    44.45640
     4.60000    10.49045     0.00000    44.45640
     4.70000    10.71975     0.00000    44.45640
     4.80000    10.94904     0.00000    44.45640
     4.90000    11.17834     0.00000    44.45640
     5.00000    11.40764     0.00000    44.45640
     5.10000    11.63694     0.00000    44.45640
     5.20000    11.86624     0.00000    44.45640
     5.30000    12.09554     0.00000    44.45640
     5.40000    12.32484     0.00000    44.45640
     5.50000    12.55414     0.00000    44.45640
     5.60000    12.78344     0.00000    44.45640
     5.70000    13.01274     0.00000    44.45640
     5.80000    13.24204     0.00000    44.45640
     5.90000    13.47134     0.00000    44.45640
     6.00000    13.70064     0.00000    44.45640
     6.10000    13.92994     0.00000    44.45640
     6.20000    14.15924     0.00000    44.45640
     6.30000    14.38854     0.00000    44.45640
     6.40000    14.61783     0.00000    44.45640
     6.50000    14.84713     0.00000    44.45640
     6.60000    15.13376     0.00000    44.45640
     6.70000    15.36306     0.00000    44.45640
     6.80000    15.59236     0.00000    44.45640
     6.90000    15.82166     0.00000    44.45640
     7.00000    16.05096     0.00000    44.45640
     7.10000    16.28025     0.00000    44.45640
     7.20000    16.50955     0.00000    44.45640
     7.30000    16.73885     0.00000    44.45640
     7.40000    16.96815     0.00000    44.45640
     7.50000    17.19745     0.00000    44.45640
     7.60000    17.42675     0.00000    44.45640
     7.70000    17.65605     0.00000    44.45640
     7.80000    17.88535     0.00000    44.45640
     7.90000    18.11465     0.00000    44.45640
     8.00000    18.34395     0.00000    44.45640
     8.10000    18.57325     0.00000    44.45640
     8.20000    18.80255     0.00000    44.45640
     8.30000    19.08917     0.00000    44.45640
     8.40000    19.31847     0.00000    44.45640
     8.50000    19.54777     0.00000    44.45640
     8.60000    19.77707     0.00000    44.45640
     8.70000    20.00637     0.00000    44.45640
     8.80000    20.23567     0.00000    44.45640
     8.90000    20.46497     0.00000    44.45640
     9.00000    20.69427     0.00000    44.45640
     9.10000    20.92357     0.00000    44.45640
     9.20000    21.15287     0.00000    44.45640
     9.30000    21.38217     0.00000    44.45640
     9.40000    21.66879     0.00000    44.45640
     9.50000    21.89809     0.00000    44.45640
     9.60000    22.12739     0.00000    44.45640
     9.70000    22.35669     0.00000    44.45640
     9.80000    22.58599     0.00000    44.45640
     9.90000    22.81529     0.00000    44.45640
    10.00000    23.04459     0.00000    44.45640
    10.10000    23.27389     0.00000    44.45640
    10.20000    23.56051     0.00000    44.45640
    10.30000    23.78981     0.00000    44.45640
    10.40000    24.01911     0.00000    44.45640
    10.50000    24.24841     0.00000    44.45640
    10.60000    24.47771     0.00000    44.45640
    10.70000    24.70701     0.00000    44.45640
    10.80000    24.99363     0.00000    44.45640
    10.90000    25.22293     0.00000    44.45640
    11.00000    25.45223     0.00000    44.45640
    11.10000    25.68153     0.00000    44.45640
    11.20000    25.91083     0.00000    44.45640
    11.30000    26.19745     0.00000    44.45640
    11.40000    26.42675     0.00000    44.45640
    11.50000    26.65605     0.00000    44.45640
    11.60000    26.88535     0.00000    44.45640
    11.70000    27.11465     0.00000    44.45640
    11.80000    27.40127     0.00000    44.45640
    11.90000    27.63057     0.00000    44.45640
    12.00000    27.85987     0.00000    44.45640
    12.10000    28.08917     0.00000    44.45640
    12.20000    28.37580     0.00000    44.45640
    12.30000    28.60510     0.00000    44.45640
    12.40000    28.83439     0.00000    44.45640
    12.50000    29.06369     0.00000    44.45640
    12.60000    29.35032     0.00000    44.45640
    12.70000    29.57962     0.00000    44.45640
    12.80000    29.80892     0.00000    44.45640
    12.90000    30.03822     0.00000    44.45640
    13.00000    30.32484     0.00000    44.45640
    13.10000    30.55414     0.00000    44.45640
    13.20000    30.78344     0.00000    44.45640
    13.30000    31.07006     0.00000    44.45640
    13.40000    31.29936     0.00000    44.45640
    13.50000    31.52866     0.00000    44.45640
    13.60000    31.81529     0.00000    44.45640
    13.70000    32.04459     0.00000    44.45640
    13.80000    32.27389     0.00000    44.45640
    13.90000    32.56051     0.00000    44.45640
    14.00000    32.78981     0.00000    44.45640
    14.10000    33.01911     0.00000    44.45640
    14.20000    33.30573     0.00000    44.45640
    14.30000    33.53503     0.00000    44.45640
    14.40000    33.82166     0.00000    44.45640
    14.50000    34.05096     0.00000    44.45640
    14.60000    34.28025     0.00000    44.45640
    14.70000    34.56688     0.00000    44.45640
    14.80000    34.79618     0.00000    44.45640
    14.90000    35.08280     0.00000    44.45640
    15.00000    35.31210     0.00000    44.45640
    15.10000    35.59873     0.00000    44.45640
    15.20000    35.82803     0.00000    44.45640
    15.30000    36.11465     0.00000    44.45640
    15.40000    36.34395     0.00000    44.45640
    15.50000    36.63057     0.00000    44.45640
    15.60000    36.85987     0.00000    44.45640
    15.70000    37.14650     0.00000    44.45640
    15.80000    37.37580     0.00000    44.45640
    15.90000    37.66242     0.00000    44.45640
    16.00000    37.89172     0.00000    44.45640
    16.10000    38.17834     0.00000    44.45640
    16.20000    38.40764     0.00000    44.45640
    16.30000    38.69427     0.00000    44.45640
    16.40000    38.98089     0.00000    44.45640
    16.50000    39.21019     0.00000    44.45640
    16.60000    39.49682     0.00000    44.45640
    16.70000    39.72611     0.00000    44.45640
    16.80000    40.01274     0.00000    44.45640
    16.90000    40.29936     0.00000    44.45640
    17.00000    40.52866     0.00000    44.45640
    17.10000    40.81529     0.00000    44.45640
    17.20000    41.10191     0.00000    44.45640
    17.30000    41.38854     0.00000    44.45640
    17.40000    41.61783     0.00000    44.45640
    17.50000    41.90446     0.00000    44.45640
    17.60000    42.19108     0.00000    44.45640
    17.70000    42.47771     0.00000    44.45640
    17.80000    42.70701     0.00000    44.45640
    17.90000    42.99363     0.00000    44.45640
    18.00000    43.28025     0.00000    44.45640
    18.10000    43.56688     0.00000    44.45640
    18.20000    43.85350     0.00000    44.45640
    18.30000    44.08280     0.00000    44.45640
    18.40000    44.36943     0.00000    44.45640
    18.50000    44.65605     0.00000    44.45640
    18.60000    44.94268     0.00000    44.45640
    18.70000    45.22930     0.00000    44.45640
    18.80000    45.51592     0.00000    44.45640
    18.90000    45.80255     0.00000    44.45640
    19.00000    46.08917     0.00000    44.45640
    19.10000    46.37580     0.00000    44.45640
    19.20000    46.66242     0.00000    44.45640
    19.30000    46.94904     0.00000    44.45640
    19.40000    47.23567     0.00000    44.45640
    19.50000    47.52229     0.00000    44.45640
    19.60000    47.80892     0.00000    44.45640
    19.70000    48.09554     0.00000    44.45640
    19.80000    48.38217     0.00000    44.45640
    19.90000    48.66879     0.00000    44.45640
    20.00000    49.01274     0.00000    44.45640
    20.10000    49.29936     0.00000    44.45640
    20.20000    49.58599     0.00000    44.45640
    20.30000    49.87261     0.00000    44.45640
    20.40000    50.15924     0.00000    44.45640
    20.50000    50.50318     0.00000    44.45640
    20.60000    50.78981     0.00000    44.45640
    20.70000    51.07643     0.00000    44.45640
    20.80000    51.42038     0.00000    44.45640
    20.90000    51.70701     0.00000    44.45640
    21.00000    51.99363     0.00000    44.45640
    21.10000    52.33758     0.00000    44.45640
    21.20000    52.62420     0.00000    44.45640
    21.30000    52.91083     0.00000    44.45640
    21.40000    53.25478     0.00000    44.45640
    21.50000    53.54140     0.00000    44.45640
    21.60000    53.88535     0.00000    44.45640
    21.70000    54.22930     0.00000    44.45640
    21.80000    54.51592     0.00000    44.45640
    21.90000    54.85987     0.00000    44.45640
    22.00000    55.14650     0.00000    44.45640
    22.10000    55.49045     0.00000    44.45640
    22.20000    55.83439     0.00000    44.45640
    22.30000    56.12102     0.00000    44.45640
    22.40000    56.46497     0.00000    44.45640
    22.50000    56.80892     0.00000    44.45640
    22.60000    57.15287     0.00000    44.45640
    22.70000    57.49682     0.00000    44.45640
    22.80000    57.78344     0.00000    44.45640
    22.90000    58.12739     0.00000    44.45640
    23.00000    58.47134     0.00000    44.45640
    23.10000    58.81529     0.00000    44.45640
    23.20000    59.15924     0.00000    44.45640
    23.30000    59.50318     0.00000    44.45640
    23.40000    59.84713     0.00000    44.45640
    23.50000    60.24841     0.00000    44.45640
    23.60000    60.59236     0.00000    44.45640
    23.70000    60.93631     0.00000    44.45640
    23.80000    61.28025     0.00000    44.45640
    23.90000    61.68153     0.00000    44.45640
    24.00000    62.02548     0.00000    44.45640
    24.10000    62.36943     0.00000    44.45640
    24.20000    62.77070     0.00000    44.45640
    24.30000    63.11465     0.00000    44.45640
    24.40000    63.51592     0.00000    44.45640
    24.50000    63.85987     0.00000    44.45640
    24.60000    64.26115     0.00000    44.45640
    24.70000    64.66242     0.00000    44.45640
    24.80000    65.06369     0.00000    44.45640
    24.90000    65.40764     0.00000    44.45640
    25.00000    65.80892     0.00000    44.45640
    25.10000    66.21019     0.00000    44.45640
    25.20000    66.61146     0.00000    44.45640
    25.30000    67.01274     0.00000    44.45640
    25.40000    67.47134     0.00000    44.45640
    25.50000    67.87261     0.00000    44.45640
    25.60000    68.27389     0.00000    44.45640
    25.70000    68.73248     0.00000    44.45640
    25.80000    69.13376     0.00000    44.45640
    25.90000    69.59236     0.00000    44.45640
    26.00000    70.05096     0.00000    44.45640
    26.10000    70.50955     0.00000    44.45640
    26.20000    70.96815     0.00000    44.45640
    26.30000    71.42675     0.00000    44.45640
    26.40000    71.88535     0.00000    44.45640
    26.50000    72.40127     0.00000    44.45640
    26.60000    72.85987     0.00000    44.45640
    26.70000    73.37580     0.00000    44.45640
    26.80000    73.89172     0.00000    44.45640
    26.90000    74.40764     0.00000    44.45640
    27.00000    74.98089     0.00000    44.45640
    27.10000    75.49682     0.00000    44.45640
    27.20000    76.07006     0.00000    44.45640
    27.30000    76.70064     0.00000    44.45640
    27.40000    77.33121     0.00000    44.45640
    27.50000    77.96178     0.00000    44.45640
    27.60000    78.64968     0.00000    44.45640
    27.70000    79.33758     0.00000    44.45640
    27.80000    80.08280     0.00000    44.45640
    27.90000    80.88535     0.00000    44.45640
    28.00000    81.80255     0.00000    44.45640
    28.10000    82.77707     0.00000    44.45640
    28.20000    83.86624     0.00000    44.45640
    28.30000    85.24204     0.00000    44.45640
    28.40000    87.13376     0.00000    44.45640
    28.50000    90.00000     0.00000    44.45640
    28.60000    90.00000     0.00000    44.45640
    28.70000    90.00000     0.00000    44.45640
    28.80000    90.00000     0.00000    44.45640
    28.90000    90.00000     0.00000    44.45640
    29.00000    90.00000     0.00000    44.45640
    29.10000    90.00000     0.00000    44.45640
    29.20000    90.00000     0.00000    44.45640
    29.30000    90.00000     0.00000    44.45640
    29.40000    90.00000     0.00000    44.45640
    29.50000    90.00000     0.00000    44.45640
    29.60000    90.00000     0.00000    44.45640
    29.70000    90.00000     0.00000    44.45640
    29.80000    90.00000     0.00000    44.45640
    29.90000    90.00000     0.00000    44.45640
    30.00000    90.00000     0.00000    44.45640
    30.10000    90.00000     0.00000    44.45640
    30.20000    90.00000     0.00000    44.45640
    30.30000    90.00000     0.00000    44.45640
    30.40000    90.00000     0.00000    44.45640
    30.50000    90.00000     0.00000    44.45640
    30.60000    90.00000     0.00000    44.45640
    30.70000    90.00000     0.00000    44.45640
    30.80000    90.00000     0.00000    44.45640
    30.90000    90.00000     0.00000    44.45640
    31.00000    90.00000     0.00000    44.45640
    31.10000    90.00000     0.00000    44.45640
    31.20000    90.00000     0.00000    44.45640
    31.30000    90.00000     0.00000    44.45640
    31.40000    90.00000     0.00000    44.45640
    31.50000    90.00000     0.00000    44.45640
    31.60000    90.00000     0.00000    44.45640
    31.70000    90.00000     0.00000    44.45640
    31.80000    90.00000     0.00000    44.45640
    31.90000    90.00000     0.00000    44.45640
    32.00000    90.00000     0.00000    44.45640
    32.10000    90.00000     0.00000    44.45640
    32.20000    90.00000     0.00000    44.45640
    32.30000    90.00000     0.00000    44.45640
    32.40000    90.00000     0.00000    44.45640
    32.50000    90.00000     0.00000    44.45640
    32.60000    90.00000     0.00000    44.45640
    32.70000    90.00000     0.00000    44.45640
    32.80000    90.00000     0.00000    44.45640
    32.90000    90.00000     0.00000    44.45640
    33.00000    90.00000     0.00000    44.45640
    33.10000    90.00000     0.00000    44.45640
    33.20000    90.00000     0.00000    44.45640
    33.30000    90.00000     0.00000    44.45640
    33.40000    90.00000     0.00000    44.45640
    33.50000    90.00000     0.00000    44.45640
    33.60000    90.00000     0.00000    44.45640
    33.70000    90.00000     0.00000    44.45640
    33.80000    90.00000     0.00000    44.45640
    33.90000    90.00000     0.00000    44.45640
    34.00000    90.00000     0.00000    44.45640
    34.10000    90.00000     0.00000    44.45640
    34.20000    90.00000     0.00000    44.45640
    34.30000    90.00000     0.00000    44.45640
    34.40000    90.00000     0.00000    44.45640
    34.50000    90.00000     0.00000    44.45640
    34.60000    90.00000     0.00000    44.45640
    34.70000    90.00000     0.00000    44.45640
    34.80000    90.00000     0.00000    44.45640
    34.90000    90.00000     0.00000    44.45640
    35.00000    90.00000     0.00000    44.45640
    35.10000    90.00000     0.00000    44.45640
    35.20000    90.00000     0.00000    44.45640
    35.30000    90.00000     0.00000    44.45640
    35.40000    90.00000     0.00000    44.45640
    35.50000    90.00000     0.00000    44.45640
    35.60000    90.00000     0.00000    44.45640
    35.70000    90.00000     0.00000    44.45640
    35.80000    90.00000     0.00000    44.45640
    35.90000    90.00000     0.00000    44.45640
    36.00000    90.00000     0.00000    44.45640
    36.10000    90.00000     0.00000    44.45640
    36.20000    90.00000     0.00000    44.45640
    36.30000    90.00000     0.00000    44.45640
    36.40000    90.00000     0.00000    44.45640
    36.50000    90.00000     0.00000    44.45640
    36.60000    90.00000     0.00000    44.45640
    36.70000    90.00000     0.00000    44.45640
    36.80000    90.00000     0.00000    44.45640
    36.90000    90.00000     0.00000    44.45640
    37.00000    90.00000     0.00000    44.45640
    37.10000    90.00000     0.00000    44.45640
    37.20000    90.00000     0.00000    44.45640
    37.30000    90.00000     0.00000    44.45640
    37.40000    90.00000     0.00000    44.45640
    37.50000    90.00000     0.00000    44.45640
    37.60000    90.00000     0.00000    44.45640
    37.70000    90.00000     0.00000    44.45640
    37.80000    90.00000     0.00000    44.45640
    37.90000    90.00000     0.00000    44.45640
    38.00000    90.00000     0.00000    44.45640
    38.10000    90.00000     0.00000    44.45640
    38.20000    90.00000     0.00000    44.45640
    38.30000    90.00000     0.00000    44.45640
    38.40000    90.00000     0.00000    44.45640
    38.50000    90.00000     0.00000    44.45640
    38.60000    90.00000     0.00000    44.45640
    38.70000    90.00000     0.00000    44.45640
    38.80000    90.00000     0.00000    44.45640
    38.90000    90.00000     0.00000    44.45640
    39.00000    90.00000     0.00000    44.45640
    39.10000    90.00000     0.00000    44.45640
    39.20000    90.00000     0.00000    44.45640
    39.30000    90.00000     0.00000    44.45640
    39.40000    90.00000     0.00000    44.45640
    39.50000    90.00000     0.00000    44.45640
    39.60000    90.00000     0.00000    44.45640
    39.70000    90.00000     0.00000    44.45640
    39.80000    90.00000     0.00000    44.45640
    39.90000    90.00000     0.00000    44.45640
    40.00000    90.00000     0.00000    44.45640
