 # applied field (T), magnetization (2 f.u.), magnetization (T)
  0.000000000000000E+000  3.513848442110234E-015  1.182702868939224E-016
  0.100000000000000       0.485429233986401       1.633873962298446E-002
  0.200000000000000        1.00538976759551       3.383974528574855E-002
  0.300000000000000        1.49051270528051       5.016817548530807E-002
  0.400000000000000        1.97533997445660       6.648665397523885E-002
  0.500000000000000        2.49432768136981       8.395491591148277E-002
  0.600000000000000        2.97823677880134       0.100242490269538     
  0.700000000000000        3.49602019608811       0.117670217822478     
  0.800000000000000        3.97859963711552       0.133913038160269     
  0.900000000000000        4.49473864557496       0.151285417650541     
   1.00000000000000        4.97557841117023       0.167469683410395     
   1.10000000000000        5.48963466553101       0.184771960866150     
   1.20000000000000        6.00244234982441       0.202032213532701     
   1.30000000000000        6.51388507279654       0.219246523874269     
   1.40000000000000        7.02384677476520       0.236410985515229     
   1.50000000000000        7.53221173915312       0.253521703628293     
   1.60000000000000        8.03886460220459       0.270574795261562     
   1.70000000000000        8.57724788191131       0.288695879878280     
   1.80000000000000        9.07999849258028       0.305617628194837     
   1.90000000000000        9.61395894722097       0.323589847885234     
   2.00000000000000        10.1454335888912       0.341478399250710     
   2.10000000000000        10.6742847888913       0.359278649938425     
   2.20000000000000        11.2003754389861       0.376985985113520     
   2.30000000000000        11.7561420747400       0.395692164546006     
   2.40000000000000        12.2761085210850       0.413193369221614     
   2.50000000000000        12.8250618091500       0.431670222717272     
   2.60000000000000        13.4021927526540       0.451095489170308     
   2.70000000000000        13.9432545617769       0.469306728626578     
   2.80000000000000        14.5116702194386       0.488438653071865     
   2.90000000000000        15.1064729100490       0.508458721103461     
   3.00000000000000        15.6648998483677       0.527254441890036     
   3.10000000000000        16.2487426101272       0.546905616968256     
   3.20000000000000        16.8568614715132       0.567373885132532     
   3.30000000000000        17.4581380410719       0.587611853148475     
   3.40000000000000        18.0818223914305       0.608604029750110     
   3.50000000000000        18.6974050775346       0.629323517824768     
   3.60000000000000        19.3332870128025       0.650726244821620     
   3.70000000000000        19.9878735784087       0.672758538526543     
   3.80000000000000        20.6317007085005       0.694428687549906     
   3.90000000000000        21.3188669327060       0.717557558307859     
   4.00000000000000        22.0191075411387       0.741126491065918     
   4.10000000000000        22.7041919062507       0.764185289913735     
   4.20000000000000        23.4498265200633       0.789282109297527     
   4.30000000000000        24.2000324380744       0.814532791167976     
   4.40000000000000        24.9757968185908       0.840643728323437     
   4.50000000000000        25.7715349165790       0.867426947546453     
   4.60000000000000        26.6250354947532       0.896154355659755     
   4.70000000000000        27.5021826389837       0.925677667807509     
   4.80000000000000        28.4305753507579       0.956925820418731     
   4.90000000000000        29.4069107001608       0.989787642372899     
   5.00000000000000        30.4663250245195        1.02544576427135     
   5.10000000000000        31.6045980960777        1.06375814027581     
   5.20000000000000        32.8766159613523        1.10657214330944     
   5.30000000000000        34.3393417544565        1.15580505760488     
   5.40000000000000        34.5031689814348        1.16131920924089     
   5.50000000000000        34.5034635822171        1.16132912501261     
   5.60000000000000        34.5037581493731        1.16133903965254     
   5.70000000000000        34.5040526829354        1.16134895316175     
   5.80000000000000        34.5043471829364        1.16135886554135     
   5.90000000000000        34.5046416494089        1.16136877679244     
   6.00000000000000        34.5049360823857        1.16137868691611     
   6.10000000000000        34.5052304818997        1.16138859591349     
   6.20000000000000        34.5055248479839        1.16139850378567     
   6.30000000000000        34.5058191806715        1.16140841053377     
   6.40000000000000        34.5061134799956        1.16141831615892     
   6.50000000000000        34.5064077459899        1.16142822066224     
   6.60000000000000        34.5067019786877        1.16143812404486     
   6.70000000000000        34.5069961781228        1.16144802630791     
   6.80000000000000        34.5072903443292        1.16145792745254     
   6.90000000000000        34.5075844773407        1.16146782747988     
   7.00000000000000        34.5078785771915        1.16147772639109     
   7.10000000000000        34.5081726439160        1.16148762418733     
   7.20000000000000        34.5084666775487        1.16149752086974     
   7.30000000000000        34.5087606781243        1.16150741643951     
   7.40000000000000        34.5090546456775        1.16151731089781     
   7.50000000000000        34.5093485802433        1.16152720424580     
   7.60000000000000        34.5096424818571        1.16153709648468     
   7.70000000000000        34.5099363668857        1.16154698816533     
   7.80000000000000        34.5102302477041        1.16155687970427     
   7.90000000000000        34.5105240953446        1.16156677012650     
   8.00000000000000        34.5108179098228        1.16157665943254     
   8.10000000000000        34.5111116911535        1.16158654762290     
   8.20000000000000        34.5114054393508        1.16159643469804     
   8.30000000000000        34.5116991544282        1.16160632065841     
   8.40000000000000        34.5119928363982        1.16161620550445     
   8.50000000000000        34.5122864852727        1.16162608923655     
   8.60000000000000        34.5125801010633        1.16163597185509     
   8.70000000000000        34.5128736837806        1.16164585336045     
   8.80000000000000        34.5131672334352        1.16165573375297     
   8.90000000000000        34.5134607500374        1.16166561303301     
   9.00000000000000        34.5137542335973        1.16167549120089     
   9.10000000000000        34.5140476841251        1.16168536825697     
   9.20000000000000        34.5143411016314        1.16169524420159     
   9.30000000000000        34.5146344861273        1.16170511903515     
   9.40000000000000        34.5149278376247        1.16171499275803     
   9.50000000000000        34.5152211561366        1.16172486537067     
   9.60000000000000        34.5155144416774        1.16173473687356     
   9.70000000000000        34.5158076942631        1.16174460726724     
   9.80000000000000        34.5161009139116        1.16175447655230     
   9.90000000000000        34.5163941006430        1.16176434472943     
   10.0000000000000        34.5166872544797        1.16177421179938     
   10.1000000000000        34.5169803754469        1.16178407776300     
   10.2000000000000        34.5172734635725        1.16179394262122     
   10.3000000000000        34.5175665188872        1.16180380637509     
   10.4000000000000        34.5178595414247        1.16181366902572     
   10.5000000000000        34.5181525312216        1.16182353057437     
   10.6000000000000        34.5184454883175        1.16183339102235     
   10.7000000000000        34.5187384127547        1.16184325037109     
   10.8000000000000        34.5190313045781        1.16185310862211     
   10.9000000000000        34.5193241638352        1.16186296577700     
   11.0000000000000        34.5196169905756        1.16187282183744     
   11.1000000000000        34.5199097848510        1.16188267680515     
   11.2000000000000        34.5202025467148        1.16189253068195     
   11.3000000000000        34.5204952762220        1.16190238346967     
   11.4000000000000        34.5207879734286        1.16191223517021     
   11.5000000000000        34.5210806383918        1.16192208578549     
   11.6000000000000        34.5213732711695        1.16193193531746     
   11.7000000000000        34.5216658718202        1.16194178376810     
   11.8000000000000        34.5219584404029        1.16195163113937     
   11.9000000000000        34.5222509769765        1.16196147743327     
   12.0000000000000        34.5225434816004        1.16197132265180     
   12.1000000000000        34.5228359543336        1.16198116679694     
   12.2000000000000        34.5231283952353        1.16199100987068     
   12.3000000000000        34.5234208043645        1.16200085187502     
   12.4000000000000        34.5237131817798        1.16201069281192     
   12.5000000000000        34.5240055275398        1.16202053268335     
   12.6000000000000        34.5242978417028        1.16203037149128     
   12.7000000000000        34.5245901243267        1.16204020923766     
   12.8000000000000        34.5248823754693        1.16205004592443     
   12.9000000000000        34.5251745951883        1.16205988155353     
   13.0000000000000        34.5254667835410        1.16206971612690     
   13.1000000000000        34.5257589405847        1.16207954964646     
   13.2000000000000        34.5260510663767        1.16208938211413     
   13.3000000000000        34.5263431609739        1.16209921353184     
   13.4000000000000        34.5266352244336        1.16210904390152     
   13.5000000000000        34.5269272568127        1.16211887322508     
   13.6000000000000        34.5272192667894        1.16212870179460     
   13.7000000000000        34.5275112467991        1.16213852935549     
   13.8000000000000        34.5278031957127        1.16214835586973     
   13.9000000000000        34.5280951135861        1.16215818133922     
   14.0000000000000        34.5283870004754        1.16216800576583     
   14.1000000000000        34.5286788564378        1.16217782915149     
   14.2000000000000        34.5289706815308        1.16218765149814     
   14.3000000000000        34.5292624758125        1.16219747280773     
   14.4000000000000        34.5295542393416        1.16220729308224     
   14.5000000000000        34.5298459721776        1.16221711232367     
   14.6000000000000        34.5301376743804        1.16222693053404     
   14.7000000000000        34.5304293460105        1.16223674771539     
   14.8000000000000        34.5307209871291        1.16224656386977     
   14.9000000000000        34.5310125977982        1.16225637899926     
   15.0000000000000        34.5313041780800        1.16226619310598     
   15.1000000000000        34.5315957280379        1.16227600619203     
   15.2000000000000        34.5318872477355        1.16228581825958     
   15.3000000000000        34.5321787372374        1.16229562931080     
   15.4000000000000        34.5324701966088        1.16230543934787     
   15.5000000000000        34.5327616259157        1.16231524837301     
   15.6000000000000        34.5330530252246        1.16232505638848     
   15.7000000000000        34.5333443946033        1.16233486339655     
   15.8000000000000        34.5336357341200        1.16234466939950     
   15.9000000000000        34.5339270438438        1.16235447439969     
   16.0000000000000        34.5342183238450        1.16236427839945     
   16.1000000000000        34.5345095741944        1.16237408140119     
   16.2000000000000        34.5348007949643        1.16238388340733     
   16.3000000000000        34.5350919862276        1.16239368442033     
   16.4000000000000        34.5353831480587        1.16240348444268     
   16.5000000000000        34.5356742805330        1.16241328347694     
   16.6000000000000        34.5359653837271        1.16242308152568     
   16.7000000000000        34.5362564577191        1.16243287859152     
   16.8000000000000        34.5365475025886        1.16244267467714     
   16.9000000000000        34.5368385184167        1.16245246978528     
   17.0000000000000        34.5371295052860        1.16246226391872     
   17.1000000000000        34.5374204632812        1.16247205708030     
   17.2000000000000        34.5377113924888        1.16248184927294     
   17.3000000000000        34.5380022929974        1.16249164049962     
   17.4000000000000        34.5382931648979        1.16250143076339     
   17.5000000000000        34.5385840082837        1.16251122006741     
   17.6000000000000        34.5388748232508        1.16252100841491     
   17.7000000000000        34.5391656098983        1.16253079580921     
   17.8000000000000        34.5394563683283        1.16254058225376     
   17.9000000000000        34.5397470986464        1.16255036775211     
   18.0000000000000        34.5400378009620        1.16256015230794     
   18.1000000000000        34.5403284753883        1.16256993592507     
   18.2000000000000        34.5406191220434        1.16257971860746     
   18.3000000000000        34.5409097410498        1.16258950035924     
   18.4000000000000        34.5412003325351        1.16259928118471     
   18.5000000000000        34.5414908966329        1.16260906108836     
   18.6000000000000        34.5417814334824        1.16261884007488     
   18.7000000000000        34.5420719432293        1.16262861814917     
   18.8000000000000        34.5423624260260        1.16263839531636     
   18.9000000000000        34.5426528820321        1.16264817158183     
   19.0000000000000        34.5429433114144        1.16265794695118     
   19.1000000000000        34.5432337143471        1.16266772143028     
   19.2000000000000        34.5435240910120        1.16267749502525     
   19.3000000000000        34.5438144415979        1.16268726774245     
   19.4000000000000        34.5441047663000        1.16269703958844     
   19.5000000000000        34.5443950653190        1.16270681056998     
   19.6000000000000        34.5446853388598        1.16271658069396     
   19.7000000000000        34.5449755871286        1.16272634996734     
   19.8000000000000        34.5452658103307        1.16273611839701     
   19.9000000000000        34.5455560086660        1.16274588598970     
   20.0000000000000        34.5458461823245        1.16275565275182     
   20.1000000000000        34.5461363314806        1.16276541868922     
   20.2000000000000        34.5464264562859        1.16277518380702     
   20.3000000000000        34.5467165568619        1.16278494810929     
   20.4000000000000        34.5470066332919        1.16279471159886     
   20.5000000000000        34.5472966856134        1.16280447427697     
   20.6000000000000        34.5475867138105        1.16281423614310     
   20.7000000000000        34.5478767178085        1.16282399719472     
   20.8000000000000        34.5481666974707        1.16283375742724     
   20.9000000000000        34.5484566525985        1.16284351683398     
   21.0000000000000        34.5487465829356        1.16285327540630     
   21.1000000000000        34.5490364881756        1.16286303313390     
   21.2000000000000        34.5493263679743        1.16287279000518     
   21.3000000000000        34.5496162219643        1.16288254600778     
   21.4000000000000        34.5499060497720        1.16289230112913     
   21.5000000000000        34.5501958510344        1.16290205535702     
   21.6000000000000        34.5504856254154        1.16291180868012     
   21.7000000000000        34.5507753726189        1.16292156108847     
   21.8000000000000        34.5510650923990        1.16293131257379     
   21.9000000000000        34.5513547845657        1.16294106312969     
   22.0000000000000        34.5516444489874        1.16295081275174     
   22.1000000000000        34.5519340855895        1.16296056143743     
   22.2000000000000        34.5522236943504        1.16297030918603     
   22.3000000000000        34.5525132752957        1.16298005599841     
   22.4000000000000        34.5528028284913        1.16298980187677     
   22.5000000000000        34.5530923540360        1.16299954682446     
   22.6000000000000        34.5533818520546        1.16300929084566     
   22.7000000000000        34.5536713226908        1.16301903394521     
   22.8000000000000        34.5539607661019        1.16302877612842     
   22.9000000000000        34.5542501824536        1.16303851740084     
   23.0000000000000        34.5545395719161        1.16304825776823     
   23.1000000000000        34.5548289346610        1.16305799723634     
   23.2000000000000        34.5551182708591        1.16306773581093     
   23.3000000000000        34.5554075806785        1.16307747349766     
   23.4000000000000        34.5556968642838        1.16308721030207     
   23.5000000000000        34.5559861218359        1.16309694622957     
   23.6000000000000        34.5562753534915        1.16310668128543     
   23.7000000000000        34.5565645594041        1.16311641547483     
   23.8000000000000        34.5568537397251        1.16312614880286     
   23.9000000000000        34.5571428946050        1.16313588127458     
   24.0000000000000        34.5574320241962        1.16314561289513     
   24.1000000000000        34.5577211286562        1.16315534366980     
   24.2000000000000        34.5580102081524        1.16316507360424     
   24.3000000000000        34.5582992628696        1.16317480270465     
   24.4000000000000        34.5585882930205        1.16318453097820     
   24.5000000000000        34.5588772988627        1.16319425843356     
   24.6000000000000        34.5591662805824        1.16320398507701     
   24.7000000000000        34.5594552386085        1.16321371092296     
   24.8000000000000        34.5597441737428        1.16322343599841     
   24.9000000000000        34.5600330869666        1.16323316033639     
   25.0000000000000        34.5603219798729        1.16324288399052     
   25.1000000000000        34.5606108552168        1.16325260705353     
   25.2000000000000        34.5608997180932        1.16326232969690     
   25.3000000000000        34.5611885785749        1.16327205225967     
   25.4000000000000        34.5614774576067        1.16328177544680     
   25.5000000000000        34.5617663974410        1.16329150068045     
   25.6000000000000        34.5620554562881        1.16330122991987     
   25.7000000000000        34.5623445981627        1.16331096195385     
   25.8000000000000        34.5626336147005        1.16332068976921     
   25.9000000000000        34.5629224187928        1.16333041043401     
   26.0000000000000        34.5632110786860        1.16334012624531     
   26.1000000000000        34.5634996561532        1.16334983928228     
   26.2000000000000        34.5637881815030        1.16335955056507     
   26.3000000000000        34.5640766684492        1.16336926055525     
   26.4000000000000        34.5643651234624        1.16337896947063     
   26.5000000000000        34.5646535498086        1.16338867742112     
   26.6000000000000        34.5649419492503        1.16339838446605     
   26.7000000000000        34.5652303227987        1.16340809063946     
   26.8000000000000        34.5655186710673        1.16341779596199     
   26.9000000000000        34.5658069944496        1.16342750044689     
   27.0000000000000        34.5660952932143        1.16343720410320     
   27.1000000000000        34.5663835675607        1.16344690693763     
   27.2000000000000        34.5666718176567        1.16345660895584     
