 # applied field (T), theta (degree), phi (degree), abs for RE 1-2
     0.00000   180.00000   360.00000     4.40116     0.00000     0.00000     0.00000
     0.10000   179.66403   180.00000     4.40115     0.00000     0.00000     0.00000
     0.20000   179.32804   180.00000     4.40114     0.00000     0.00000     0.00000
     0.30000   179.03998   180.00000     4.40112     0.00000     0.00000     0.00000
     0.40000   178.70389   180.00000     4.40108     0.00000     0.00000     0.00000
     0.50000   178.36772   180.00000     4.40104     0.00000     0.00000     0.00000
     0.60000   178.03145   180.00000     4.40098     0.00000     0.00000     0.00000
     0.70000   177.74308   180.00000     4.40093     0.00000     0.00000     0.00000
     0.80000   177.40656   180.00000     4.40086     0.00000     0.00000     0.00000
     0.90000   177.06987   180.00000     4.40077     0.00000     0.00000     0.00000
     1.00000   176.73299   180.00000     4.40068     0.00000     0.00000     0.00000
     1.10000   176.39590   180.00000     4.40058     0.00000     0.00000     0.00000
     1.20000   176.05859   180.00000     4.40047     0.00000     0.00000     0.00000
     1.30000   175.76923   180.00000     4.40036     0.00000     0.00000     0.00000
     1.40000   175.43144   180.00000     4.40023     0.00000     0.00000     0.00000
     1.50000   175.09335   180.00000     4.40009     0.00000     0.00000     0.00000
     1.60000   174.75495   180.00000     4.39994     0.00000     0.00000     0.00000
     1.70000   174.41622   180.00000     4.39978     0.00000     0.00000     0.00000
     1.80000   174.07714   180.00000     4.39961     0.00000     0.00000     0.00000
     1.90000   173.73768   180.00000     4.39943     0.00000     0.00000     0.00000
     2.00000   173.39782   180.00000     4.39924     0.00000     0.00000     0.00000
     2.10000   173.05755   180.00000     4.39905     0.00000     0.00000     0.00000
     2.20000   172.71684   180.00000     4.39884     0.00000     0.00000     0.00000
     2.30000   172.37568   180.00000     4.39862     0.00000     0.00000     0.00000
     2.40000   172.03403   180.00000     4.39839     0.00000     0.00000     0.00000
     2.50000   171.69188   180.00000     4.39816     0.00000     0.00000     0.00000
     2.60000   171.34921   180.00000     4.39791     0.00000     0.00000     0.00000
     2.70000   171.00601   180.00000     4.39766     0.00000     0.00000     0.00000
     2.80000   170.61312   180.00000     4.39736     0.00000     0.00000     0.00000
     2.90000   170.26868   180.00000     4.39708     0.00000     0.00000     0.00000
     3.00000   169.92364   180.00000     4.39680     0.00000     0.00000     0.00000
     3.10000   169.57797   180.00000     4.39651     0.00000     0.00000     0.00000
     3.20000   169.18217   180.00000     4.39617     0.00000     0.00000     0.00000
     3.30000   168.83510   180.00000     4.39586     0.00000     0.00000     0.00000
     3.40000   168.43764   180.00000     4.39549     0.00000     0.00000     0.00000
     3.50000   168.08907   180.00000     4.39516     0.00000     0.00000     0.00000
     3.60000   167.68985   180.00000     4.39478     0.00000     0.00000     0.00000
     3.70000   167.33969   180.00000     4.39443     0.00000     0.00000     0.00000
     3.80000   166.93861   180.00000     4.39403     0.00000     0.00000     0.00000
     3.90000   166.53650   180.00000     4.39362     0.00000     0.00000     0.00000
     4.00000   166.13333   180.00000     4.39319     0.00000     0.00000     0.00000
     4.10000   165.72906   180.00000     4.39276     0.00000     0.00000     0.00000
     4.20000   165.32368   180.00000     4.39232     0.00000     0.00000     0.00000
     4.30000   164.91716   180.00000     4.39186     0.00000     0.00000     0.00000
     4.40000   164.50947   180.00000     4.39140     0.00000     0.00000     0.00000
     4.50000   164.10059   180.00000     4.39093     0.00000     0.00000     0.00000
     4.60000   163.69048   180.00000     4.39045     0.00000     0.00000     0.00000
     4.70000   163.22768   180.00000     4.38990     0.00000     0.00000     0.00000
     4.80000   162.81490   180.00000     4.38941     0.00000     0.00000     0.00000
     4.90000   162.34903   180.00000     4.38884     0.00000     0.00000     0.00000
     5.00000   161.88149   180.00000     4.38826     0.00000     0.00000     0.00000
     5.10000   161.41225   180.00000     4.38768     0.00000     0.00000     0.00000
     5.20000   160.94128   180.00000     4.38708     0.00000     0.00000     0.00000
     5.30000   160.46855   180.00000     4.38648     0.00000     0.00000     0.00000
     5.40000   159.99402   180.00000     4.38587     0.00000     0.00000     0.00000
     5.50000   159.46470   180.00000     4.38518     0.00000     0.00000     0.00000
     5.60000   158.93311   180.00000     4.38449     0.00000     0.00000     0.00000
     5.70000   158.39920   180.00000     4.38379     0.00000     0.00000     0.00000
     5.80000   157.86296   180.00000     4.38308     0.00000     0.00000     0.00000
     5.90000   157.32434   180.00000     4.38236     0.00000     0.00000     0.00000
     6.00000   156.72917   180.00000     4.38157     0.00000     0.00000     0.00000
     6.10000   156.13107   180.00000     4.38078     0.00000     0.00000     0.00000
     6.20000   155.53001   180.00000     4.37998     0.00000     0.00000     0.00000
     6.30000   154.87099   180.00000     4.37910     0.00000     0.00000     0.00000
     6.40000   154.15309   180.00000     4.37815     0.00000     0.00000     0.00000
     6.50000   153.48662   180.00000     4.37727     0.00000     0.00000     0.00000
     6.60000   152.70467   180.00000     4.37625     0.00000     0.00000     0.00000
     6.70000   151.91784   180.00000     4.37523     0.00000     0.00000     0.00000
     6.80000   151.06944   180.00000     4.37415     0.00000     0.00000     0.00000
     6.90000   150.15840   180.00000     4.37300     0.00000     0.00000     0.00000
     7.00000   149.18359   180.00000     4.37180     0.00000     0.00000     0.00000
     7.10000   148.08594   180.00000     4.37049     0.00000     0.00000     0.00000
     7.20000    90.00000   180.00000     4.35955     0.00000     0.00000     0.00000
     7.30000    90.00000   180.00000     4.35950     0.00000     0.00000     0.00000
     7.40000    90.00000   180.00000     4.35946     0.00000     0.00000     0.00000
     7.50000    90.00000   180.00000     4.35941     0.00000     0.00000     0.00000
     7.60000    90.00000   180.00000     4.35937     0.00000     0.00000     0.00000
     7.70000    90.00000   180.00000     4.35933     0.00000     0.00000     0.00000
     7.80000    90.00000   180.00000     4.35928     0.00000     0.00000     0.00000
     7.90000    90.00000   180.00000     4.35924     0.00000     0.00000     0.00000
     8.00000    90.00000   180.00000     4.35920     0.00000     0.00000     0.00000
     8.10000    90.00000   180.00000     4.35915     0.00000     0.00000     0.00000
     8.20000    90.00000   180.00000     4.35911     0.00000     0.00000     0.00000
     8.30000    90.00000   180.00000     4.35907     0.00000     0.00000     0.00000
     8.40000    90.00000   180.00000     4.35902     0.00000     0.00000     0.00000
     8.50000    90.00000   180.00000     4.35898     0.00000     0.00000     0.00000
     8.60000    90.00000   180.00000     4.35894     0.00000     0.00000     0.00000
     8.70000    90.00000   180.00000     4.35889     0.00000     0.00000     0.00000
     8.80000    90.00000   180.00000     4.35885     0.00000     0.00000     0.00000
     8.90000    90.00000   180.00000     4.35880     0.00000     0.00000     0.00000
     9.00000    90.00000   180.00000     4.35876     0.00000     0.00000     0.00000
     9.10000    90.00000   180.00000     4.35872     0.00000     0.00000     0.00000
     9.20000    90.00000   180.00000     4.35867     0.00000     0.00000     0.00000
     9.30000    90.00000   180.00000     4.35863     0.00000     0.00000     0.00000
     9.40000    90.00000   180.00000     4.35859     0.00000     0.00000     0.00000
     9.50000    90.00000   180.00000     4.35854     0.00000     0.00000     0.00000
     9.60000    90.00000   180.00000     4.35850     0.00000     0.00000     0.00000
     9.70000    90.00000   180.00000     4.35845     0.00000     0.00000     0.00000
     9.80000    90.00000   180.00000     4.35841     0.00000     0.00000     0.00000
     9.90000    90.00000   180.00000     4.35837     0.00000     0.00000     0.00000
    10.00000    90.00000   180.00000     4.35832     0.00000     0.00000     0.00000
    10.10000    90.00000   180.00000     4.35828     0.00000     0.00000     0.00000
    10.20000    90.00000   180.00000     4.35824     0.00000     0.00000     0.00000
    10.30000    90.00000   180.00000     4.35819     0.00000     0.00000     0.00000
    10.40000    90.00000   180.00000     4.35815     0.00000     0.00000     0.00000
    10.50000    90.00000   180.00000     4.35810     0.00000     0.00000     0.00000
    10.60000    90.00000   180.00000     4.35806     0.00000     0.00000     0.00000
    10.70000    90.00000   180.00000     4.35802     0.00000     0.00000     0.00000
    10.80000    90.00000   180.00000     4.35797     0.00000     0.00000     0.00000
    10.90000    90.00000   180.00000     4.35793     0.00000     0.00000     0.00000
    11.00000    90.00000   180.00000     4.35789     0.00000     0.00000     0.00000
    11.10000    90.00000   180.00000     4.35784     0.00000     0.00000     0.00000
    11.20000    90.00000   180.00000     4.35780     0.00000     0.00000     0.00000
    11.30000    90.00000   180.00000     4.35775     0.00000     0.00000     0.00000
    11.40000    90.00000   180.00000     4.35771     0.00000     0.00000     0.00000
    11.50000    90.00000   180.00000     4.35767     0.00000     0.00000     0.00000
    11.60000    90.00000   180.00000     4.35762     0.00000     0.00000     0.00000
    11.70000    90.00000   180.00000     4.35758     0.00000     0.00000     0.00000
    11.80000    90.00000   180.00000     4.35754     0.00000     0.00000     0.00000
    11.90000    90.00000   180.00000     4.35749     0.00000     0.00000     0.00000
    12.00000    90.00000   180.00000     4.35745     0.00000     0.00000     0.00000
    12.10000    90.00000   180.00000     4.35740     0.00000     0.00000     0.00000
    12.20000    90.00000   180.00000     4.35736     0.00000     0.00000     0.00000
    12.30000    90.00000   180.00000     4.35732     0.00000     0.00000     0.00000
    12.40000    90.00000   180.00000     4.35727     0.00000     0.00000     0.00000
    12.50000    90.00000   180.00000     4.35723     0.00000     0.00000     0.00000
    12.60000    90.00000   180.00000     4.35718     0.00000     0.00000     0.00000
    12.70000    90.00000   180.00000     4.35714     0.00000     0.00000     0.00000
    12.80000    90.00000   180.00000     4.35710     0.00000     0.00000     0.00000
    12.90000    90.00000   180.00000     4.35705     0.00000     0.00000     0.00000
    13.00000    90.00000   180.00000     4.35701     0.00000     0.00000     0.00000
    13.10000    90.00000   180.00000     4.35697     0.00000     0.00000     0.00000
    13.20000    90.00000   180.00000     4.35692     0.00000     0.00000     0.00000
    13.30000    90.00000   180.00000     4.35688     0.00000     0.00000     0.00000
    13.40000    90.00000   180.00000     4.35683     0.00000     0.00000     0.00000
    13.50000    90.00000   180.00000     4.35679     0.00000     0.00000     0.00000
    13.60000    90.00000   180.00000     4.35675     0.00000     0.00000     0.00000
    13.70000    90.00000   180.00000     4.35670     0.00000     0.00000     0.00000
    13.80000    90.00000   180.00000     4.35666     0.00000     0.00000     0.00000
    13.90000    90.00000   180.00000     4.35661     0.00000     0.00000     0.00000
    14.00000    90.00000   180.00000     4.35657     0.00000     0.00000     0.00000
    14.10000    90.00000   180.00000     4.35653     0.00000     0.00000     0.00000
    14.20000    90.00000   180.00000     4.35648     0.00000     0.00000     0.00000
    14.30000    90.00000   180.00000     4.35644     0.00000     0.00000     0.00000
    14.40000    90.00000   180.00000     4.35639     0.00000     0.00000     0.00000
    14.50000    90.00000   180.00000     4.35635     0.00000     0.00000     0.00000
    14.60000    90.00000   180.00000     4.35631     0.00000     0.00000     0.00000
    14.70000    90.00000   180.00000     4.35626     0.00000     0.00000     0.00000
    14.80000    90.00000   180.00000     4.35622     0.00000     0.00000     0.00000
    14.90000    90.00000   180.00000     4.35617     0.00000     0.00000     0.00000
    15.00000    90.00000   180.00000     4.35613     0.00000     0.00000     0.00000
    15.10000    90.00000   180.00000     4.35609     0.00000     0.00000     0.00000
    15.20000    90.00000   180.00000     4.35604     0.00000     0.00000     0.00000
    15.30000    90.00000   180.00000     4.35600     0.00000     0.00000     0.00000
    15.40000    90.00000   180.00000     4.35595     0.00000     0.00000     0.00000
    15.50000    90.00000   180.00000     4.35591     0.00000     0.00000     0.00000
    15.60000    90.00000   180.00000     4.35587     0.00000     0.00000     0.00000
    15.70000    90.00000   180.00000     4.35582     0.00000     0.00000     0.00000
    15.80000    90.00000   180.00000     4.35578     0.00000     0.00000     0.00000
    15.90000    90.00000   180.00000     4.35573     0.00000     0.00000     0.00000
    16.00000    90.00000   180.00000     4.35569     0.00000     0.00000     0.00000
    16.10000    90.00000   180.00000     4.35565     0.00000     0.00000     0.00000
    16.20000    90.00000   180.00000     4.35560     0.00000     0.00000     0.00000
    16.30000    90.00000   180.00000     4.35556     0.00000     0.00000     0.00000
    16.40000    90.00000   180.00000     4.35551     0.00000     0.00000     0.00000
    16.50000    90.00000   180.00000     4.35547     0.00000     0.00000     0.00000
    16.60000    90.00000   180.00000     4.35543     0.00000     0.00000     0.00000
    16.70000    90.00000   180.00000     4.35538     0.00000     0.00000     0.00000
    16.80000    90.00000   180.00000     4.35534     0.00000     0.00000     0.00000
    16.90000    90.00000   180.00000     4.35529     0.00000     0.00000     0.00000
    17.00000    90.00000   180.00000     4.35525     0.00000     0.00000     0.00000
    17.10000    90.00000   180.00000     4.35521     0.00000     0.00000     0.00000
    17.20000    90.00000   180.00000     4.35516     0.00000     0.00000     0.00000
    17.30000    90.00000   180.00000     4.35512     0.00000     0.00000     0.00000
    17.40000    90.00000   180.00000     4.35507     0.00000     0.00000     0.00000
    17.50000    90.00000   180.00000     4.35503     0.00000     0.00000     0.00000
    17.60000    90.00000   180.00000     4.35498     0.00000     0.00000     0.00000
    17.70000    90.00000   180.00000     4.35494     0.00000     0.00000     0.00000
    17.80000    90.00000   180.00000     4.35490     0.00000     0.00000     0.00000
    17.90000    90.00000   180.00000     4.35485     0.00000     0.00000     0.00000
    18.00000    90.00000   180.00000     4.35481     0.00000     0.00000     0.00000
    18.10000    90.00000   180.00000     4.35476     0.00000     0.00000     0.00000
    18.20000    90.00000   180.00000     4.35472     0.00000     0.00000     0.00000
    18.30000    90.00000   180.00000     4.35468     0.00000     0.00000     0.00000
    18.40000    90.00000   180.00000     4.35463     0.00000     0.00000     0.00000
    18.50000    90.00000   180.00000     4.35459     0.00000     0.00000     0.00000
    18.60000    90.00000   180.00000     4.35454     0.00000     0.00000     0.00000
    18.70000    90.00000   180.00000     4.35450     0.00000     0.00000     0.00000
    18.80000    90.00000   180.00000     4.35445     0.00000     0.00000     0.00000
    18.90000    90.00000   180.00000     4.35441     0.00000     0.00000     0.00000
    19.00000    90.00000   180.00000     4.35437     0.00000     0.00000     0.00000
    19.10000    90.00000   180.00000     4.35432     0.00000     0.00000     0.00000
    19.20000    90.00000   180.00000     4.35428     0.00000     0.00000     0.00000
    19.30000    90.00000   180.00000     4.35423     0.00000     0.00000     0.00000
    19.40000    90.00000   180.00000     4.35419     0.00000     0.00000     0.00000
    19.50000    90.00000   180.00000     4.35414     0.00000     0.00000     0.00000
    19.60000    90.00000   180.00000     4.35410     0.00000     0.00000     0.00000
    19.70000    90.00000   180.00000     4.35406     0.00000     0.00000     0.00000
    19.80000    90.00000   180.00000     4.35401     0.00000     0.00000     0.00000
    19.90000    90.00000   180.00000     4.35397     0.00000     0.00000     0.00000
    20.00000    90.00000   180.00000     4.35392     0.00000     0.00000     0.00000
    20.10000    90.00000   180.00000     4.35388     0.00000     0.00000     0.00000
    20.20000    90.00000   180.00000     4.35384     0.00000     0.00000     0.00000
    20.30000    90.00000   180.00000     4.35379     0.00000     0.00000     0.00000
    20.40000    90.00000   180.00000     4.35375     0.00000     0.00000     0.00000
    20.50000    90.00000   180.00000     4.35370     0.00000     0.00000     0.00000
    20.60000    90.00000   180.00000     4.35366     0.00000     0.00000     0.00000
    20.70000    90.00000   180.00000     4.35361     0.00000     0.00000     0.00000
    20.80000    90.00000   180.00000     4.35357     0.00000     0.00000     0.00000
    20.90000    90.00000   180.00000     4.35352     0.00000     0.00000     0.00000
    21.00000    90.00000   180.00000     4.35348     0.00000     0.00000     0.00000
    21.10000    90.00000   180.00000     4.35344     0.00000     0.00000     0.00000
    21.20000    90.00000   180.00000     4.35339     0.00000     0.00000     0.00000
    21.30000    90.00000   180.00000     4.35335     0.00000     0.00000     0.00000
    21.40000    90.00000   180.00000     4.35330     0.00000     0.00000     0.00000
    21.50000    90.00000   180.00000     4.35326     0.00000     0.00000     0.00000
    21.60000    90.00000   180.00000     4.35321     0.00000     0.00000     0.00000
    21.70000    90.00000   180.00000     4.35317     0.00000     0.00000     0.00000
    21.80000    90.00000   180.00000     4.35313     0.00000     0.00000     0.00000
    21.90000    90.00000   180.00000     4.35308     0.00000     0.00000     0.00000
    22.00000    90.00000   180.00000     4.35304     0.00000     0.00000     0.00000
    22.10000    90.00000   180.00000     4.35299     0.00000     0.00000     0.00000
    22.20000    90.00000   180.00000     4.35295     0.00000     0.00000     0.00000
    22.30000    90.00000   180.00000     4.35290     0.00000     0.00000     0.00000
    22.40000    90.00000   180.00000     4.35286     0.00000     0.00000     0.00000
    22.50000    90.00000   180.00000     4.35281     0.00000     0.00000     0.00000
    22.60000    90.00000   180.00000     4.35277     0.00000     0.00000     0.00000
    22.70000    90.00000   180.00000     4.35273     0.00000     0.00000     0.00000
    22.80000    90.00000   180.00000     4.35268     0.00000     0.00000     0.00000
    22.90000    90.00000   180.00000     4.35264     0.00000     0.00000     0.00000
    23.00000    90.00000   180.00000     4.35259     0.00000     0.00000     0.00000
    23.10000    90.00000   180.00000     4.35255     0.00000     0.00000     0.00000
    23.20000    90.00000   180.00000     4.35250     0.00000     0.00000     0.00000
    23.30000    90.00000   180.00000     4.35246     0.00000     0.00000     0.00000
