 # applied field (T), magnetization (2 f.u.), magnetization (T)
  0.000000000000000E+000  5.923251011131372E-015  2.038157565299963E-016
  0.100000000000000       0.799641605179937       2.751522067971241E-002
  0.200000000000000        1.59902568739950       5.502158013829911E-002
  0.300000000000000        2.35355642039050       8.098456092042193E-002
  0.400000000000000        3.15170289927859       0.108448335140123     
  0.500000000000000        3.94883432512600       0.135877181952052     
  0.600000000000000        4.74469392791476       0.163262266043410     
  0.700000000000000        5.53902531939107       0.190594765237690     
  0.800000000000000        6.33157257027258       0.217865873151337     
  0.900000000000000        7.12208028745294       0.245066801850312     
   1.00000000000000        7.91029369120199       0.272188784506508     
   1.10000000000000        8.73950197409418       0.300721378040194     
   1.20000000000000        9.52220226828178       0.327653657677897     
   1.30000000000000        10.3450274542729       0.355966612415008     
   1.40000000000000        11.1641385152343       0.384151766185835     
   1.50000000000000        11.9792409667108       0.412198985944872     
   1.60000000000000        12.7900416758677       0.440098185155121     
   1.70000000000000        13.6385251108141       0.469294025897273     
   1.80000000000000        14.4815808092462       0.498303101259764     
   1.90000000000000        15.3188724903070       0.527113840006268     
   2.00000000000000        16.1500660399243       0.555714745458315     
   2.10000000000000        17.0158717263863       0.585506635192956     
   2.20000000000000        17.8742074845183       0.615041488869030     
   2.30000000000000        18.7246952105201       0.644306296146109     
   2.40000000000000        19.6068365777609       0.674660287525625     
   2.50000000000000        20.4795267788760       0.704689069561423     
   2.60000000000000        21.3813021541058       0.735718656181538     
   2.70000000000000        22.2718087422976       0.766360490138293     
   2.80000000000000        23.1884909614896       0.797903012927060     
   2.90000000000000        24.1291880739665       0.830271874770794     
   3.00000000000000        25.0915412271613       0.863385908871127     
   3.10000000000000        26.0369815711839       0.895917982661147     
   3.20000000000000        27.0001815450557       0.929061155387648     
   3.30000000000000        28.0128114395594       0.963905184054559     
   3.40000000000000        29.0019339654974       0.997940337308415     
   3.50000000000000        30.0650570280019        1.03452180766340     
   3.60000000000000        31.0974445926458        1.07004568671641     
   3.70000000000000        32.1901363028939        1.10764459771305     
   3.80000000000000        33.3023902066758        1.14591663285502     
   3.90000000000000        34.4535091895448        1.18552599364500     
   4.00000000000000        35.6559991713283        1.22690300179413     
   4.10000000000000        36.8889847758236        1.26932934727544     
   4.20000000000000        38.1743115065991        1.31355672165632     
   4.30000000000000        39.5124573157635        1.35960157100168     
   4.40000000000000        40.9275247550617        1.40829325064510     
   4.50000000000000        42.4413098272471        1.46038174885857     
   4.60000000000000        44.0627990490594        1.51617628666017     
   4.70000000000000        44.4448045993537        1.52932088412625     
   4.80000000000000        44.4450504661382        1.52932934426488     
   4.90000000000000        44.4452963102051        1.52933780362181     
   5.00000000000000        44.4455421315628        1.52934626219732     
   5.10000000000000        44.4457879302196        1.52935471999172     
   5.20000000000000        44.4460337061840        1.52936317700528     
   5.30000000000000        44.4462794594646        1.52937163323830     
   5.40000000000000        44.4465251900696        1.52938008869107     
   5.50000000000000        44.4467708980076        1.52938854336388     
   5.60000000000000        44.4470165832870        1.52939699725702     
   5.70000000000000        44.4472622459161        1.52940545037078     
   5.80000000000000        44.4475078859036        1.52941390270545     
   5.90000000000000        44.4477535032577        1.52942235426132     
   6.00000000000000        44.4479990979870        1.52943080503868     
   6.10000000000000        44.4482446700998        1.52943925503782     
   6.20000000000000        44.4484902196047        1.52944770425903     
   6.30000000000000        44.4487357465099        1.52945615270261     
   6.40000000000000        44.4489812508241        1.52946460036883     
   6.50000000000000        44.4492267325556        1.52947304725801     
   6.60000000000000        44.4494721917129        1.52948149337041     
   6.70000000000000        44.4497176283044        1.52948993870634     
   6.80000000000000        44.4499630423386        1.52949838326608     
   6.90000000000000        44.4502084338238        1.52950682704993     
   7.00000000000000        44.4504538027686        1.52951527005817     
   7.10000000000000        44.4506991491813        1.52952371229110     
   7.20000000000000        44.4509444730705        1.52953215374900     
   7.30000000000000        44.4511897744445        1.52954059443217     
   7.40000000000000        44.4514350533118        1.52954903434090     
   7.50000000000000        44.4516803096809        1.52955747347547     
   7.60000000000000        44.4519255435601        1.52956591183619     
   7.70000000000000        44.4521707549580        1.52957434942333     
   7.80000000000000        44.4524159438829        1.52958278623719     
   7.90000000000000        44.4526611103434        1.52959122227806     
   8.00000000000000        44.4529062543478        1.52959965754623     
   8.10000000000000        44.4531513759046        1.52960809204199     
   8.20000000000000        44.4533964750222        1.52961652576563     
   8.30000000000000        44.4536415517092        1.52962495871744     
   8.40000000000000        44.4538866059738        1.52963339089772     
   8.50000000000000        44.4541316378247        1.52964182230675     
   8.60000000000000        44.4543766472702        1.52965025294482     
   8.70000000000000        44.4546216343187        1.52965868281223     
   8.80000000000000        44.4548665989788        1.52966711190926     
   8.90000000000000        44.4551115412588        1.52967554023620     
   9.00000000000000        44.4553564611672        1.52968396779336     
   9.10000000000000        44.4556013587125        1.52969239458101     
   9.20000000000000        44.4558462339030        1.52970082059944     
   9.30000000000000        44.4560910867473        1.52970924584896     
   9.40000000000000        44.4563359172539        1.52971767032984     
   9.50000000000000        44.4565807254310        1.52972609404238     
   9.60000000000000        44.4568255112872        1.52973451698687     
   9.70000000000000        44.4570702748310        1.52974293916360     
   9.80000000000000        44.4573150160708        1.52975136057287     
   9.90000000000000        44.4575597350149        1.52975978121495     
   10.0000000000000        44.4578044316720        1.52976820109015     
   10.1000000000000        44.4580491060503        1.52977662019875     
   10.2000000000000        44.4582937581585        1.52978503854105     
   10.3000000000000        44.4585383880049        1.52979345611732     
   10.4000000000000        44.4587829955979        1.52980187292788     
   10.5000000000000        44.4590275809461        1.52981028897300     
   10.6000000000000        44.4592721440579        1.52981870425298     
   10.7000000000000        44.4595166849416        1.52982711876811     
   10.8000000000000        44.4597612036059        1.52983553251867     
   10.9000000000000        44.4600057000590        1.52984394550496     
   11.0000000000000        44.4602501743096        1.52985235772728     
   11.1000000000000        44.4604946263660        1.52986076918590     
   11.2000000000000        44.4607390562366        1.52986917988113     
   11.3000000000000        44.4609834639300        1.52987758981325     
   11.4000000000000        44.4612278494546        1.52988599898255     
   11.5000000000000        44.4614722128188        1.52989440738933     
   11.6000000000000        44.4617165540310        1.52990281503387     
   11.7000000000000        44.4619608730998        1.52991122191647     
   11.8000000000000        44.4622051700336        1.52991962803741     
   11.9000000000000        44.4624494448409        1.52992803339699     
   12.0000000000000        44.4626936975300        1.52993643799550     
   12.1000000000000        44.4629379281095        1.52994484183323     
   12.2000000000000        44.4631821365878        1.52995324491047     
   12.3000000000000        44.4634263229734        1.52996164722751     
   12.4000000000000        44.4636704872746        1.52997004878464     
   12.5000000000000        44.4639146295000        1.52997844958216     
   12.6000000000000        44.4641587496581        1.52998684962035     
   12.7000000000000        44.4644028477572        1.52999524889950     
   12.8000000000000        44.4646469238059        1.53000364741991     
   12.9000000000000        44.4648909778125        1.53001204518186     
   13.0000000000000        44.4651350097856        1.53002044218566     
   13.1000000000000        44.4653790197335        1.53002883843158     
   13.2000000000000        44.4656230076648        1.53003723391992     
   13.3000000000000        44.4658669735880        1.53004562865097     
   13.4000000000000        44.4661109175114        1.53005402262503     
   13.5000000000000        44.4663548394435        1.53006241584237     
   13.6000000000000        44.4665987393928        1.53007080830330     
   13.7000000000000        44.4668426173677        1.53007920000810     
   13.8000000000000        44.4670864733767        1.53008759095707     
   13.9000000000000        44.4673303074283        1.53009598115050     
   14.0000000000000        44.4675741195309        1.53010437058867     
   14.1000000000000        44.4678179096929        1.53011275927188     
   14.2000000000000        44.4680616779229        1.53012114720042     
   14.3000000000000        44.4683054242292        1.53012953437458     
   14.4000000000000        44.4685491486204        1.53013792079466     
   14.5000000000000        44.4687928511049        1.53014630646093     
   14.6000000000000        44.4690365316912        1.53015469137370     
   14.7000000000000        44.4692801903876        1.53016307553325     
   14.8000000000000        44.4695238272028        1.53017145893988     
   14.9000000000000        44.4697674421451        1.53017984159388     
   15.0000000000000        44.4700110352230        1.53018822349554     
   15.1000000000000        44.4702546064449        1.53019660464514     
   15.2000000000000        44.4704981558194        1.53020498504299     
   15.3000000000000        44.4707416833549        1.53021336468936     
   15.4000000000000        44.4709851890598        1.53022174358456     
   15.5000000000000        44.4712286729425        1.53023012172888     
   15.6000000000000        44.4714721350117        1.53023849912259     
   15.7000000000000        44.4717155752757        1.53024687576601     
   15.8000000000000        44.4719589937430        1.53025525165941     
   15.9000000000000        44.4722023904220        1.53026362680309     
   16.0000000000000        44.4724457653213        1.53027200119734     
   16.1000000000000        44.4726891184492        1.53028037484245     
   16.2000000000000        44.4729324498142        1.53028874773872     
   16.3000000000000        44.4731757594249        1.53029711988642     
   16.4000000000000        44.4734190472896        1.53030549128586     
   16.5000000000000        44.4736623134169        1.53031386193733     
   16.6000000000000        44.4739055578151        1.53032223184111     
   16.7000000000000        44.4741487804928        1.53033060099751     
   16.8000000000000        44.4743919814585        1.53033896940680     
   16.9000000000000        44.4746351607205        1.53034733706928     
   17.0000000000000        44.4748783182873        1.53035570398524     
   17.1000000000000        44.4751214541675        1.53036407015498     
   17.2000000000000        44.4753645683695        1.53037243557879     
   17.3000000000000        44.4756076609017        1.53038080025694     
   17.4000000000000        44.4758507317726        1.53038916418975     
   17.5000000000000        44.4760937809907        1.53039752737749     
   17.6000000000000        44.4763368085645        1.53040588982047     
   17.7000000000000        44.4765798145023        1.53041425151896     
   17.8000000000000        44.4768227988127        1.53042261247327     
   17.9000000000000        44.4770657615042        1.53043097268368     
   18.0000000000000        44.4773087025852        1.53043933215049     
   18.1000000000000        44.4775516220641        1.53044769087398     
   18.2000000000000        44.4777945199495        1.53045604885445     
   18.3000000000000        44.4780373962499        1.53046440609219     
   18.4000000000000        44.4782802509736        1.53047276258749     
   18.5000000000000        44.4785230841291        1.53048111834064     
   18.6000000000000        44.4787658957250        1.53048947335194     
   18.7000000000000        44.4790086857696        1.53049782762167     
   18.8000000000000        44.4792514542715        1.53050618115012     
   18.9000000000000        44.4794942012392        1.53051453393760     
   19.0000000000000        44.4797369266810        1.53052288598438     
   19.1000000000000        44.4799796306055        1.53053123729077     
   19.2000000000000        44.4802223130211        1.53053958785704     
   19.3000000000000        44.4804649739363        1.53054793768350     
   19.4000000000000        44.4807076133596        1.53055628677043     
   19.5000000000000        44.4809502312994        1.53056463511813     
   19.6000000000000        44.4811928277643        1.53057298272689     
   19.7000000000000        44.4814354027626        1.53058132959700     
   19.8000000000000        44.4816779563029        1.53058967572874     
   19.9000000000000        44.4819204883936        1.53059802112242     
   20.0000000000000        44.4821629990432        1.53060636577833     
   20.1000000000000        44.4824054882601        1.53061470969675     
   20.2000000000000        44.4826479560530        1.53062305287797     
   20.3000000000000        44.4828904024301        1.53063139532229     
   20.4000000000000        44.4831328274000        1.53063973703001     
   20.5000000000000        44.4833752309712        1.53064807800140     
   20.6000000000000        44.4836176131521        1.53065641823677     
   20.7000000000000        44.4838599739512        1.53066475773640     
   20.8000000000000        44.4841023133770        1.53067309650059     
   20.9000000000000        44.4843446314379        1.53068143452962     
   21.0000000000000        44.4845869281425        1.53068977182380     
   21.1000000000000        44.4848292034991        1.53069810838340     
   21.2000000000000        44.4850714575164        1.53070644420873     
   21.3000000000000        44.4853136902027        1.53071477930007     
   21.4000000000000        44.4855559015665        1.53072311365771     
   21.5000000000000        44.4857980916163        1.53073144728196     
   21.6000000000000        44.4860402603605        1.53073978017309     
   21.7000000000000        44.4862824078077        1.53074811233140     
   21.8000000000000        44.4865245339664        1.53075644375718     
   21.9000000000000        44.4867666388449        1.53076477445073     
   22.0000000000000        44.4870087224518        1.53077310441233     
   22.1000000000000        44.4872507847956        1.53078143364228     
   22.2000000000000        44.4874928258847        1.53078976214087     
   22.3000000000000        44.4877348457275        1.53079808990839     
   22.4000000000000        44.4879768443327        1.53080641694513     
   22.5000000000000        44.4882188217086        1.53081474325138     
   22.6000000000000        44.4884607778638        1.53082306882744     
   22.7000000000000        44.4887027128066        1.53083139367360     
   22.8000000000000        44.4889446265457        1.53083971779014     
   22.9000000000000        44.4891865190894        1.53084804117737     
   23.0000000000000        44.4894283904462        1.53085636383556     
   23.1000000000000        44.4896702406247        1.53086468576503     
   23.2000000000000        44.4899120696333        1.53087300696604     
   23.3000000000000        44.4901538774805        1.53088132743891     
   23.4000000000000        44.4903956641747        1.53088964718391     
   23.5000000000000        44.4906374297245        1.53089796620134     
   23.6000000000000        44.4908791741382        1.53090628449150     
   23.7000000000000        44.4911208974245        1.53091460205467     
   23.8000000000000        44.4913625995917        1.53092291889115     
   23.9000000000000        44.4916042806485        1.53093123500122     
   24.0000000000000        44.4918459406031        1.53093955038519     
   24.1000000000000        44.4920875794641        1.53094786504333     
   24.2000000000000        44.4923291972401        1.53095617897595     
   24.3000000000000        44.4925707939394        1.53096449218334     
   24.4000000000000        44.4928123695706        1.53097280466578     
   24.5000000000000        44.4930539241422        1.53098111642357     
   24.6000000000000        44.4932954576625        1.53098942745700     
   24.7000000000000        44.4935369701402        1.53099773776637     
   24.8000000000000        44.4937784615836        1.53100604735196     
   24.9000000000000        44.4940199320013        1.53101435621406     
   25.0000000000000        44.4942613814018        1.53102266435297     
   25.1000000000000        44.4945028097935        1.53103097176899     
   25.2000000000000        44.4947442171849        1.53103927846239     
   25.3000000000000        44.4949856035845        1.53104758443348     
   25.4000000000000        44.4952269690008        1.53105588968255     
   25.5000000000000        44.4954683134422        1.53106419420988     
   25.6000000000000        44.4957096369173        1.53107249801577     
   25.7000000000000        44.4959509394346        1.53108080110051     
   25.8000000000000        44.4961922210024        1.53108910346440     
   25.9000000000000        44.4964334816294        1.53109740510772     
   26.0000000000000        44.4966747213239        1.53110570603077     
   26.1000000000000        44.4969159400945        1.53111400623384     
   26.2000000000000        44.4971571379497        1.53112230571722     
   26.3000000000000        44.4973983148979        1.53113060448121     
   26.4000000000000        44.4976394709476        1.53113890252609     
   26.5000000000000        44.4978806061074        1.53114719985215     
   26.6000000000000        44.4981217203856        1.53115549645970     
   26.7000000000000        44.4983628137908        1.53116379234901     
   26.8000000000000        44.4986038863315        1.53117208752039     
   26.9000000000000        44.4988449380161        1.53118038197412     
   27.0000000000000        44.4990859688532        1.53118867571051     
   27.1000000000000        44.4993269788512        1.53119696872983     
   27.2000000000000        44.4995679680187        1.53120526103238     
