 # applied field (T), magnetization (2 f.u.), magnetization (T)
  0.000000000000000E+000  2.248769163290604E-015  7.517590531332835E-017
  0.100000000000000       0.806601436778084       2.696452540646469E-002
  0.200000000000000        1.61281975010895       5.391624307238337E-002
  0.300000000000000        2.41826668234906       8.084217362204935E-002
  0.400000000000000        3.22255405424571       0.107729340300346     
  0.500000000000000        4.02529398461244       0.134564776316452     
  0.600000000000000        4.82609912553014       0.161335532706567     
  0.700000000000000        5.66079577125171       0.189239275353188     
  0.800000000000000        6.45644047617320       0.215837519395589     
  0.900000000000000        7.28490042463510       0.243532770494782     
   1.00000000000000        8.10952532865977       0.271099816822142     
   1.10000000000000        8.92987973282364       0.298524101189575     
   1.20000000000000        9.78086092924999       0.326972233123383     
   1.30000000000000        10.6262313380537       0.355232797544289     
   1.40000000000000        11.4655048622242       0.383289544326027     
   1.50000000000000        12.3327266411796       0.412280595699662     
   1.60000000000000        13.2264657864432       0.442158117348364     
   1.70000000000000        14.1112959556334       0.471737813701050     
   1.80000000000000        14.9866204951769       0.500999738747580     
   1.90000000000000        15.9179382737051       0.532133506622983     
   2.00000000000000        16.8368201707999       0.562851545458524     
   2.10000000000000        17.7746286707831       0.594202296859620     
   2.20000000000000        18.7290765699073       0.626109300060460     
   2.30000000000000        19.7285928555018       0.659522930446174     
   2.40000000000000        20.7079776922135       0.692263570504674     
   2.50000000000000        21.7549112839662       0.727262351992666     
   2.60000000000000        22.8327410786894       0.763293987393352     
   2.70000000000000        23.9072435954834       0.799214392555454     
   2.80000000000000        25.0547016366852       0.837573686370289     
   2.90000000000000        26.2607491541540       0.877891614709336     
   3.00000000000000        27.5086509357552       0.919608722763552     
   3.10000000000000        28.8245622200289       0.963599374948831     
   3.20000000000000        30.2383092081954        1.01086065523244     
   3.30000000000000        31.7654707731386        1.06191336223253     
   3.40000000000000        33.4689476456230        1.11886025485265     
   3.50000000000000        35.3938037824159        1.18320781219356     
   3.60000000000000        36.6714917121089        1.22592066524693     
   3.70000000000000        36.6717418254885        1.22592902648741     
   3.80000000000000        36.6719919169096        1.22593738699381     
   3.90000000000000        36.6722419863808        1.22594574676643     
   4.00000000000000        36.6724920339104        1.22595410580555     
   4.10000000000000        36.6727420595070        1.22596246411146     
   4.20000000000000        36.6729920631792        1.22597082168443     
   4.30000000000000        36.6732420449353        1.22597917852476     
   4.40000000000000        36.6734920047839        1.22598753463272     
   4.50000000000000        36.6737419427336        1.22599589000861     
   4.60000000000000        36.6739918587927        1.22600424465270     
   4.70000000000000        36.6742417529699        1.22601259856528     
   4.80000000000000        36.6744916252736        1.22602095174663     
   4.90000000000000        36.6747414757124        1.22602930419705     
   5.00000000000000        36.6749913042947        1.22603765591680     
   5.10000000000000        36.6752411110290        1.22604600690618     
   5.20000000000000        36.6754908959239        1.22605435716548     
   5.30000000000000        36.6757406589879        1.22606270669497     
   5.40000000000000        36.6759904002294        1.22607105549494     
   5.50000000000000        36.6762401196570        1.22607940356568     
   5.60000000000000        36.6764898172792        1.22608775090746     
   5.70000000000000        36.6767394931044        1.22609609752058     
   5.80000000000000        36.6769891471413        1.22610444340532     
   5.90000000000000        36.6772387793982        1.22611278856195     
   6.00000000000000        36.6774883898838        1.22612113299078     
   6.10000000000000        36.6777379786065        1.22612947669208     
   6.20000000000000        36.6779875455748        1.22613781966613     
   6.30000000000000        36.6782370907973        1.22614616191322     
   6.40000000000000        36.6784866142824        1.22615450343364     
   6.50000000000000        36.6787361160387        1.22616284422767     
   6.60000000000000        36.6789855960746        1.22617118429559     
   6.70000000000000        36.6792350543987        1.22617952363769     
   6.80000000000000        36.6794844910195        1.22618786225425     
   6.90000000000000        36.6797339059455        1.22619620014556     
   7.00000000000000        36.6799832991852        1.22620453731190     
   7.10000000000000        36.6802326707471        1.22621287375355     
   7.20000000000000        36.6804820206398        1.22622120947081     
   7.30000000000000        36.6807313488717        1.22622954446395     
   7.40000000000000        36.6809806554514        1.22623787873326     
   7.50000000000000        36.6812299403873        1.22624621227903     
   7.60000000000000        36.6814792036881        1.22625454510153     
   7.70000000000000        36.6817284453621        1.22626287720106     
   7.80000000000000        36.6819776654179        1.22627120857790     
   7.90000000000000        36.6822268638640        1.22627953923233     
   8.00000000000000        36.6824760407090        1.22628786916464     
   8.10000000000000        36.6827251959614        1.22629619837511     
   8.20000000000000        36.6829743296295        1.22630452686402     
   8.30000000000000        36.6832234417221        1.22631285463167     
   8.40000000000000        36.6834725322476        1.22632118167833     
   8.50000000000000        36.6837216012144        1.22632950800429     
   8.60000000000000        36.6839706486312        1.22633783360984     
   8.70000000000000        36.6842196745065        1.22634615849526     
   8.80000000000000        36.6844686788486        1.22635448266083     
   8.90000000000000        36.6847176616663        1.22636280610685     
   9.00000000000000        36.6849666229679        1.22637112883358     
   9.10000000000000        36.6852155627621        1.22637945084133     
   9.20000000000000        36.6854644810572        1.22638777213037     
   9.30000000000000        36.6857133778619        1.22639609270098     
   9.40000000000000        36.6859622531847        1.22640441255346     
   9.50000000000000        36.6862111070340        1.22641273168809     
   9.60000000000000        36.6864599394184        1.22642105010515     
   9.70000000000000        36.6867087503464        1.22642936780492     
   9.80000000000000        36.6869575398266        1.22643768478770     
   9.90000000000000        36.6872063078674        1.22644600105376     
   10.0000000000000        36.6874550544773        1.22645431660340     
   10.1000000000000        36.6877037796649        1.22646263143689     
   10.2000000000000        36.6879524834388        1.22647094555452     
   10.3000000000000        36.6882011658073        1.22647925895658     
   10.4000000000000        36.6884498267791        1.22648757164335     
   10.5000000000000        36.6886984663626        1.22649588361511     
   10.6000000000000        36.6889470845665        1.22650419487216     
   10.7000000000000        36.6891956813991        1.22651250541477     
   10.8000000000000        36.6894442568691        1.22652081524323     
   10.9000000000000        36.6896928109849        1.22652912435782     
   11.0000000000000        36.6899413437550        1.22653743275884     
   11.1000000000000        36.6901898551881        1.22654574044656     
   11.2000000000000        36.6904383452925        1.22655404742126     
   11.3000000000000        36.6906868140769        1.22656235368325     
   11.4000000000000        36.6909352615497        1.22657065923279     
   11.5000000000000        36.6911836877195        1.22657896407017     
   11.6000000000000        36.6914320925948        1.22658726819569     
   11.7000000000000        36.6916804761842        1.22659557160962     
   11.8000000000000        36.6919288384960        1.22660387431224     
   11.9000000000000        36.6921771795390        1.22661217630386     
   12.0000000000000        36.6924254993215        1.22662047758474     
   12.1000000000000        36.6926737978522        1.22662877815517     
   12.2000000000000        36.6929220751395        1.22663707801544     
   12.3000000000000        36.6931703311919        1.22664537716584     
   12.4000000000000        36.6934185660181        1.22665367560664     
   12.5000000000000        36.6936667796264        1.22666197333814     
   12.6000000000000        36.6939149720255        1.22667027036062     
   12.7000000000000        36.6941631432239        1.22667856667436     
   12.8000000000000        36.6944112932300        1.22668686227965     
   12.9000000000000        36.6946594220525        1.22669515717677     
   13.0000000000000        36.6949075296998        1.22670345136602     
   13.1000000000000        36.6951556161805        1.22671174484766     
   13.2000000000000        36.6954036815031        1.22672003762200     
   13.3000000000000        36.6956517256761        1.22672832968931     
   13.4000000000000        36.6958997487081        1.22673662104988     
   13.5000000000000        36.6961477506076        1.22674491170399     
   13.6000000000000        36.6963957313830        1.22675320165193     
   13.7000000000000        36.6966436910430        1.22676149089398     
   13.8000000000000        36.6968916295961        1.22676977943044     
   13.9000000000000        36.6971395470508        1.22677806726158     
   14.0000000000000        36.6973874434155        1.22678635438769     
   14.1000000000000        36.6976353186989        1.22679464080905     
   14.2000000000000        36.6978831729096        1.22680292652595     
   14.3000000000000        36.6981310060559        1.22681121153868     
   14.4000000000000        36.6983788181465        1.22681949584752     
   14.5000000000000        36.6986266091898        1.22682777945276     
   14.6000000000000        36.6988743791944        1.22683606235467     
   14.7000000000000        36.6991221281689        1.22684434455355     
   14.8000000000000        36.6993698561217        1.22685262604968     
   14.9000000000000        36.6996175630615        1.22686090684335     
   15.0000000000000        36.6998652489966        1.22686918693484     
   15.1000000000000        36.7001129139357        1.22687746632443     
   15.2000000000000        36.7003605578873        1.22688574501242     
   15.3000000000000        36.7006081808600        1.22689402299908     
   15.4000000000000        36.7008557828621        1.22690230028471     
   15.5000000000000        36.7011033639024        1.22691057686958     
   15.6000000000000        36.7013509239893        1.22691885275399     
   15.7000000000000        36.7015984631313        1.22692712793821     
   15.8000000000000        36.7018459813370        1.22693540242254     
   15.9000000000000        36.7020934786150        1.22694367620725     
   16.0000000000000        36.7023409549737        1.22695194929264     
   16.1000000000000        36.7025884104216        1.22696022167899     
   16.2000000000000        36.7028358449674        1.22696849336658     
   16.3000000000000        36.7030832586196        1.22697676435571     
   16.4000000000000        36.7033306513867        1.22698503464664     
   16.5000000000000        36.7035780232771        1.22699330423968     
   16.6000000000000        36.7038253742996        1.22700157313510     
   16.7000000000000        36.7040727044625        1.22700984133320     
   16.8000000000000        36.7043200137745        1.22701810883425     
   16.9000000000000        36.7045673022440        1.22702637563854     
   17.0000000000000        36.7048145698797        1.22703464174636     
   17.1000000000000        36.7050618166900        1.22704290715799     
   17.2000000000000        36.7053090426834        1.22705117187372     
   17.3000000000000        36.7055562478686        1.22705943589383     
   17.4000000000000        36.7058034322541        1.22706769921862     
   17.5000000000000        36.7060505958483        1.22707596184835     
   17.6000000000000        36.7062977386598        1.22708422378333     
   17.7000000000000        36.7065448606973        1.22709248502383     
   17.8000000000000        36.7067919619691        1.22710074557014     
   17.9000000000000        36.7070390424839        1.22710900542254     
   18.0000000000000        36.7072861022502        1.22711726458133     
   18.1000000000000        36.7075331412764        1.22712552304678     
   18.2000000000000        36.7077801595713        1.22713378081919     
   18.3000000000000        36.7080271571432        1.22714203789883     
   18.4000000000000        36.7082741340008        1.22715029428600     
   18.5000000000000        36.7085210901526        1.22715854998097     
   18.6000000000000        36.7087680256070        1.22716680498404     
   18.7000000000000        36.7090149403728        1.22717505929549     
   18.8000000000000        36.7092618344584        1.22718331291561     
   18.9000000000000        36.7095087078722        1.22719156584467     
   19.0000000000000        36.7097555606230        1.22719981808297     
   19.1000000000000        36.7100023927192        1.22720806963079     
   19.2000000000000        36.7102492041694        1.22721632048842     
   19.3000000000000        36.7104959949821        1.22722457065615     
   19.4000000000000        36.7107427651658        1.22723282013425     
   19.5000000000000        36.7109895147291        1.22724106892301     
   19.6000000000000        36.7112362436806        1.22724931702273     
   19.7000000000000        36.7114829520287        1.22725756443367     
   19.8000000000000        36.7117296397821        1.22726581115615     
   19.9000000000000        36.7119763069492        1.22727405719042     
   20.0000000000000        36.7122229535387        1.22728230253679     
   20.1000000000000        36.7124695795589        1.22729054719554     
   20.2000000000000        36.7127161850186        1.22729879116694     
   20.3000000000000        36.7129627699263        1.22730703445130     
   20.4000000000000        36.7132093342904        1.22731527704889     
   20.5000000000000        36.7134558781195        1.22732351896001     
   20.6000000000000        36.7137024014223        1.22733176018492     
   20.7000000000000        36.7139489042071        1.22734000072393     
   20.8000000000000        36.7141953864826        1.22734824057732     
   20.9000000000000        36.7144418482573        1.22735647974537     
   21.0000000000000        36.7146882895398        1.22736471822837     
   21.1000000000000        36.7149347103386        1.22737295602660     
   21.2000000000000        36.7151811106623        1.22738119314035     
   21.3000000000000        36.7154274905193        1.22738942956991     
   21.4000000000000        36.7156738499183        1.22739766531556     
   21.5000000000000        36.7159201888678        1.22740590037758     
   21.6000000000000        36.7161665073763        1.22741413475627     
   21.7000000000000        36.7164128054524        1.22742236845191     
   21.8000000000000        36.7166590831046        1.22743060146478     
   21.9000000000000        36.7169053403416        1.22743883379517     
   22.0000000000000        36.7171515771717        1.22744706544337     
   22.1000000000000        36.7173977936037        1.22745529640965     
   22.2000000000000        36.7176439896459        1.22746352669432     
   22.3000000000000        36.7178901653071        1.22747175629765     
   22.4000000000000        36.7181363205957        1.22747998521993     
   22.5000000000000        36.7183824555202        1.22748821346144     
   22.6000000000000        36.7186285700893        1.22749644102248     
   22.7000000000000        36.7188746643115        1.22750466790332     
   22.8000000000000        36.7191207381953        1.22751289410425     
   22.9000000000000        36.7193667917492        1.22752111962556     
   23.0000000000000        36.7196128249819        1.22752934446753     
   23.1000000000000        36.7198588379019        1.22753756863046     
   23.2000000000000        36.7201048305177        1.22754579211462     
   23.3000000000000        36.7203508028379        1.22755401492030     
   23.4000000000000        36.7205967548710        1.22756223704779     
   23.5000000000000        36.7208426866257        1.22757045849737     
   23.6000000000000        36.7210885981103        1.22757867926933     
   23.7000000000000        36.7213344893336        1.22758689936396     
   23.8000000000000        36.7215803603040        1.22759511878154     
   23.9000000000000        36.7218262110300        1.22760333752235     
   24.0000000000000        36.7220720415204        1.22761155558669     
   24.1000000000000        36.7223178517835        1.22761977297484     
   24.2000000000000        36.7225636418280        1.22762798968708     
   24.3000000000000        36.7228094116624        1.22763620572370     
   24.4000000000000        36.7230551612953        1.22764442108499     
   24.5000000000000        36.7233008907352        1.22765263577123     
   24.6000000000000        36.7235465999907        1.22766084978271     
   24.7000000000000        36.7237922890703        1.22766906311972     
   24.8000000000000        36.7240379579826        1.22767727578253     
   24.9000000000000        36.7242836067361        1.22768548777144     
   25.0000000000000        36.7245292353394        1.22769369908674     
   25.1000000000000        36.7247748438011        1.22770190972870     
   25.2000000000000        36.7250204321296        1.22771011969762     
   25.3000000000000        36.7252660003337        1.22771832899378     
   25.4000000000000        36.7255115484217        1.22772653761747     
   25.5000000000000        36.7257570764024        1.22773474556896     
   25.6000000000000        36.7260025842841        1.22774295284856     
   25.7000000000000        36.7262480720756        1.22775115945654     
   25.8000000000000        36.7264935397853        1.22775936539320     
   25.9000000000000        36.7267389874218        1.22776757065881     
   26.0000000000000        36.7269844149936        1.22777577525366     
   26.1000000000000        36.7272298225094        1.22778397917804     
   26.2000000000000        36.7274752099777        1.22779218243224     
   26.3000000000000        36.7277205774070        1.22780038501654     
   26.4000000000000        36.7279659248059        1.22780858693123     
   26.5000000000000        36.7282112521829        1.22781678817659     
   26.6000000000000        36.7284565595467        1.22782498875291     
   26.7000000000000        36.7287018469058        1.22783318866048     
   26.8000000000000        36.7289471142686        1.22784138789958     
   26.9000000000000        36.7291923616439        1.22784958647049     
   27.0000000000000        36.7294375890401        1.22785778437351     
   27.1000000000000        36.7296827964659        1.22786598160893     
   27.2000000000000        36.7299279839296        1.22787417817702     
