 # applied field (T), theta (degree), phi (degree), abs for RE 1-2
     0.00000   180.00000   360.00000     0.09080     0.00000     0.00000     0.00000
     0.10000   178.29826   180.00000     0.09082     0.00000     0.00000     0.00000
     0.20000   176.59901   180.00000     0.09090     0.00000     0.00000     0.00000
     0.30000   175.00666   180.00000     0.09102     0.00000     0.00000     0.00000
     0.40000   173.31926   180.00000     0.09119     0.00000     0.00000     0.00000
     0.50000   171.64148   180.00000     0.09142     0.00000     0.00000     0.00000
     0.60000   169.97555   180.00000     0.09169     0.00000     0.00000     0.00000
     0.70000   168.32364   180.00000     0.09201     0.00000     0.00000     0.00000
     0.80000   166.68775   180.00000     0.09237     0.00000     0.00000     0.00000
     0.90000   165.06976   180.00000     0.09278     0.00000     0.00000     0.00000
     1.00000   163.47137   180.00000     0.09323     0.00000     0.00000     0.00000
     1.10000   161.79971   180.00000     0.09375     0.00000     0.00000     0.00000
     1.20000   160.24639   180.00000     0.09428     0.00000     0.00000     0.00000
     1.30000   158.62536   180.00000     0.09488     0.00000     0.00000     0.00000
     1.40000   157.03226   180.00000     0.09551     0.00000     0.00000     0.00000
     1.50000   155.46807   180.00000     0.09618     0.00000     0.00000     0.00000
     1.60000   153.93358   180.00000     0.09688     0.00000     0.00000     0.00000
     1.70000   152.34459   180.00000     0.09766     0.00000     0.00000     0.00000
     1.80000   150.78983   180.00000     0.09846     0.00000     0.00000     0.00000
     1.90000   149.26953   180.00000     0.09928     0.00000     0.00000     0.00000
     2.00000   147.78371   180.00000     0.10013     0.00000     0.00000     0.00000
     2.10000   146.25489   180.00000     0.10104     0.00000     0.00000     0.00000
     2.20000   144.76377   180.00000     0.10196     0.00000     0.00000     0.00000
     2.30000   143.30978   180.00000     0.10290     0.00000     0.00000     0.00000
     2.40000   141.82058   180.00000     0.10389     0.00000     0.00000     0.00000
     2.50000   140.37058   180.00000     0.10489     0.00000     0.00000     0.00000
     2.60000   138.89081   180.00000     0.10594     0.00000     0.00000     0.00000
     2.70000   137.45143   180.00000     0.10699     0.00000     0.00000     0.00000
     2.80000   135.98675   180.00000     0.10808     0.00000     0.00000     0.00000
     2.90000   134.50044   180.00000     0.10921     0.00000     0.00000     0.00000
     3.00000   132.99580   180.00000     0.11036     0.00000     0.00000     0.00000
     3.10000   131.53442   180.00000     0.11150     0.00000     0.00000     0.00000
     3.20000   130.05665   180.00000     0.11265     0.00000     0.00000     0.00000
     3.30000   128.50925   180.00000     0.11386     0.00000     0.00000     0.00000
     3.40000   127.00617   180.00000     0.11503     0.00000     0.00000     0.00000
     3.50000   125.38715   180.00000     0.11628     0.00000     0.00000     0.00000
     3.60000   123.81374   180.00000     0.11746     0.00000     0.00000     0.00000
     3.70000   122.13343   180.00000     0.11870     0.00000     0.00000     0.00000
     3.80000   120.40128   180.00000     0.11993     0.00000     0.00000     0.00000
     3.90000   118.57234   180.00000     0.12116     0.00000     0.00000     0.00000
     4.00000   116.60502   180.00000     0.12241     0.00000     0.00000     0.00000
     4.10000   114.50434   180.00000     0.12363     0.00000     0.00000     0.00000
     4.20000   112.18551   180.00000     0.12485     0.00000     0.00000     0.00000
     4.30000   109.56711   180.00000     0.12604     0.00000     0.00000     0.00000
     4.40000   106.44208   180.00000     0.12721     0.00000     0.00000     0.00000
     4.50000   102.35718   180.00000     0.12835     0.00000     0.00000     0.00000
     4.60000    95.37756   180.00000     0.12944     0.00000     0.00000     0.00000
     4.70000    90.00000   180.00000     0.12958     0.00000     0.00000     0.00000
     4.80000    90.00000   180.00000     0.12945     0.00000     0.00000     0.00000
     4.90000    90.00000   180.00000     0.12933     0.00000     0.00000     0.00000
     5.00000    90.00000   180.00000     0.12921     0.00000     0.00000     0.00000
     5.10000    90.00000   180.00000     0.12909     0.00000     0.00000     0.00000
     5.20000    90.00000   180.00000     0.12896     0.00000     0.00000     0.00000
     5.30000    90.00000   180.00000     0.12884     0.00000     0.00000     0.00000
     5.40000    90.00000   180.00000     0.12872     0.00000     0.00000     0.00000
     5.50000    90.00000   180.00000     0.12859     0.00000     0.00000     0.00000
     5.60000    90.00000   180.00000     0.12847     0.00000     0.00000     0.00000
     5.70000    90.00000   180.00000     0.12835     0.00000     0.00000     0.00000
     5.80000    90.00000   180.00000     0.12823     0.00000     0.00000     0.00000
     5.90000    90.00000   180.00000     0.12810     0.00000     0.00000     0.00000
     6.00000    90.00000   180.00000     0.12798     0.00000     0.00000     0.00000
     6.10000    90.00000   180.00000     0.12786     0.00000     0.00000     0.00000
     6.20000    90.00000   180.00000     0.12773     0.00000     0.00000     0.00000
     6.30000    90.00000   180.00000     0.12761     0.00000     0.00000     0.00000
     6.40000    90.00000   180.00000     0.12749     0.00000     0.00000     0.00000
     6.50000    90.00000   180.00000     0.12737     0.00000     0.00000     0.00000
     6.60000    90.00000   180.00000     0.12724     0.00000     0.00000     0.00000
     6.70000    90.00000   180.00000     0.12712     0.00000     0.00000     0.00000
     6.80000    90.00000   180.00000     0.12700     0.00000     0.00000     0.00000
     6.90000    90.00000   180.00000     0.12688     0.00000     0.00000     0.00000
     7.00000    90.00000   180.00000     0.12675     0.00000     0.00000     0.00000
     7.10000    90.00000   180.00000     0.12663     0.00000     0.00000     0.00000
     7.20000    90.00000   180.00000     0.12651     0.00000     0.00000     0.00000
     7.30000    90.00000   180.00000     0.12639     0.00000     0.00000     0.00000
     7.40000    90.00000   180.00000     0.12626     0.00000     0.00000     0.00000
     7.50000    90.00000   180.00000     0.12614     0.00000     0.00000     0.00000
     7.60000    90.00000   180.00000     0.12602     0.00000     0.00000     0.00000
     7.70000    90.00000   180.00000     0.12589     0.00000     0.00000     0.00000
     7.80000    90.00000   180.00000     0.12577     0.00000     0.00000     0.00000
     7.90000    90.00000   180.00000     0.12565     0.00000     0.00000     0.00000
     8.00000    90.00000   180.00000     0.12553     0.00000     0.00000     0.00000
     8.10000    90.00000   180.00000     0.12540     0.00000     0.00000     0.00000
     8.20000    90.00000   180.00000     0.12528     0.00000     0.00000     0.00000
     8.30000    90.00000   180.00000     0.12516     0.00000     0.00000     0.00000
     8.40000    90.00000   180.00000     0.12504     0.00000     0.00000     0.00000
     8.50000    90.00000   180.00000     0.12491     0.00000     0.00000     0.00000
     8.60000    90.00000   180.00000     0.12479     0.00000     0.00000     0.00000
     8.70000    90.00000   180.00000     0.12467     0.00000     0.00000     0.00000
     8.80000    90.00000   180.00000     0.12455     0.00000     0.00000     0.00000
     8.90000    90.00000   180.00000     0.12442     0.00000     0.00000     0.00000
     9.00000    90.00000   180.00000     0.12430     0.00000     0.00000     0.00000
     9.10000    90.00000   180.00000     0.12418     0.00000     0.00000     0.00000
     9.20000    90.00000   180.00000     0.12406     0.00000     0.00000     0.00000
     9.30000    90.00000   180.00000     0.12393     0.00000     0.00000     0.00000
     9.40000    90.00000   180.00000     0.12381     0.00000     0.00000     0.00000
     9.50000    90.00000   180.00000     0.12369     0.00000     0.00000     0.00000
     9.60000    90.00000   180.00000     0.12357     0.00000     0.00000     0.00000
     9.70000    90.00000   180.00000     0.12344     0.00000     0.00000     0.00000
     9.80000    90.00000   180.00000     0.12332     0.00000     0.00000     0.00000
     9.90000    90.00000   180.00000     0.12320     0.00000     0.00000     0.00000
    10.00000    90.00000   180.00000     0.12308     0.00000     0.00000     0.00000
    10.10000    90.00000   180.00000     0.12296     0.00000     0.00000     0.00000
    10.20000    90.00000   180.00000     0.12283     0.00000     0.00000     0.00000
    10.30000    90.00000   180.00000     0.12271     0.00000     0.00000     0.00000
    10.40000    90.00000   180.00000     0.12259     0.00000     0.00000     0.00000
    10.50000    90.00000   180.00000     0.12247     0.00000     0.00000     0.00000
    10.60000    90.00000   180.00000     0.12234     0.00000     0.00000     0.00000
    10.70000    90.00000   180.00000     0.12222     0.00000     0.00000     0.00000
    10.80000    90.00000   180.00000     0.12210     0.00000     0.00000     0.00000
    10.90000    90.00000   180.00000     0.12198     0.00000     0.00000     0.00000
    11.00000    90.00000   180.00000     0.12186     0.00000     0.00000     0.00000
    11.10000    90.00000   180.00000     0.12173     0.00000     0.00000     0.00000
    11.20000    90.00000   180.00000     0.12161     0.00000     0.00000     0.00000
    11.30000    90.00000   180.00000     0.12149     0.00000     0.00000     0.00000
    11.40000    90.00000   180.00000     0.12137     0.00000     0.00000     0.00000
    11.50000    90.00000   180.00000     0.12124     0.00000     0.00000     0.00000
    11.60000    90.00000   180.00000     0.12112     0.00000     0.00000     0.00000
    11.70000    90.00000   180.00000     0.12100     0.00000     0.00000     0.00000
    11.80000    90.00000   180.00000     0.12088     0.00000     0.00000     0.00000
    11.90000    90.00000   180.00000     0.12076     0.00000     0.00000     0.00000
    12.00000    90.00000   180.00000     0.12063     0.00000     0.00000     0.00000
    12.10000    90.00000   180.00000     0.12051     0.00000     0.00000     0.00000
    12.20000    90.00000   180.00000     0.12039     0.00000     0.00000     0.00000
    12.30000    90.00000   180.00000     0.12027     0.00000     0.00000     0.00000
    12.40000    90.00000   180.00000     0.12014     0.00000     0.00000     0.00000
    12.50000    90.00000   180.00000     0.12002     0.00000     0.00000     0.00000
    12.60000    90.00000   180.00000     0.11990     0.00000     0.00000     0.00000
    12.70000    90.00000   180.00000     0.11978     0.00000     0.00000     0.00000
    12.80000    90.00000   180.00000     0.11966     0.00000     0.00000     0.00000
    12.90000    90.00000   180.00000     0.11953     0.00000     0.00000     0.00000
    13.00000    90.00000   180.00000     0.11941     0.00000     0.00000     0.00000
    13.10000    90.00000   180.00000     0.11929     0.00000     0.00000     0.00000
    13.20000    90.00000   180.00000     0.11917     0.00000     0.00000     0.00000
    13.30000    90.00000   180.00000     0.11905     0.00000     0.00000     0.00000
    13.40000    90.00000   180.00000     0.11892     0.00000     0.00000     0.00000
    13.50000    90.00000   180.00000     0.11880     0.00000     0.00000     0.00000
    13.60000    90.00000   180.00000     0.11868     0.00000     0.00000     0.00000
    13.70000    90.00000   180.00000     0.11856     0.00000     0.00000     0.00000
    13.80000    90.00000   180.00000     0.11844     0.00000     0.00000     0.00000
    13.90000    90.00000   180.00000     0.11831     0.00000     0.00000     0.00000
    14.00000    90.00000   180.00000     0.11819     0.00000     0.00000     0.00000
    14.10000    90.00000   180.00000     0.11807     0.00000     0.00000     0.00000
    14.20000    90.00000   180.00000     0.11795     0.00000     0.00000     0.00000
    14.30000    90.00000   180.00000     0.11783     0.00000     0.00000     0.00000
    14.40000    90.00000   180.00000     0.11771     0.00000     0.00000     0.00000
    14.50000    90.00000   180.00000     0.11758     0.00000     0.00000     0.00000
    14.60000    90.00000   180.00000     0.11746     0.00000     0.00000     0.00000
    14.70000    90.00000   180.00000     0.11734     0.00000     0.00000     0.00000
    14.80000    90.00000   180.00000     0.11722     0.00000     0.00000     0.00000
    14.90000    90.00000   180.00000     0.11710     0.00000     0.00000     0.00000
    15.00000    90.00000   180.00000     0.11697     0.00000     0.00000     0.00000
    15.10000    90.00000   180.00000     0.11685     0.00000     0.00000     0.00000
    15.20000    90.00000   180.00000     0.11673     0.00000     0.00000     0.00000
    15.30000    90.00000   180.00000     0.11661     0.00000     0.00000     0.00000
    15.40000    90.00000   180.00000     0.11649     0.00000     0.00000     0.00000
    15.50000    90.00000   180.00000     0.11637     0.00000     0.00000     0.00000
    15.60000    90.00000   180.00000     0.11624     0.00000     0.00000     0.00000
    15.70000    90.00000   180.00000     0.11612     0.00000     0.00000     0.00000
    15.80000    90.00000   180.00000     0.11600     0.00000     0.00000     0.00000
    15.90000    90.00000   180.00000     0.11588     0.00000     0.00000     0.00000
    16.00000    90.00000   180.00000     0.11576     0.00000     0.00000     0.00000
    16.10000    90.00000   180.00000     0.11564     0.00000     0.00000     0.00000
    16.20000    90.00000   180.00000     0.11551     0.00000     0.00000     0.00000
    16.30000    90.00000   180.00000     0.11539     0.00000     0.00000     0.00000
    16.40000    90.00000   180.00000     0.11527     0.00000     0.00000     0.00000
    16.50000    90.00000   180.00000     0.11515     0.00000     0.00000     0.00000
    16.60000    90.00000   180.00000     0.11503     0.00000     0.00000     0.00000
    16.70000    90.00000   180.00000     0.11491     0.00000     0.00000     0.00000
    16.80000    90.00000   180.00000     0.11478     0.00000     0.00000     0.00000
    16.90000    90.00000   180.00000     0.11466     0.00000     0.00000     0.00000
    17.00000    90.00000   180.00000     0.11454     0.00000     0.00000     0.00000
    17.10000    90.00000   180.00000     0.11442     0.00000     0.00000     0.00000
    17.20000    90.00000   180.00000     0.11430     0.00000     0.00000     0.00000
    17.30000    90.00000   180.00000     0.11418     0.00000     0.00000     0.00000
    17.40000    90.00000   180.00000     0.11405     0.00000     0.00000     0.00000
    17.50000    90.00000   180.00000     0.11393     0.00000     0.00000     0.00000
    17.60000    90.00000   180.00000     0.11381     0.00000     0.00000     0.00000
    17.70000    90.00000   180.00000     0.11369     0.00000     0.00000     0.00000
    17.80000    90.00000   180.00000     0.11357     0.00000     0.00000     0.00000
    17.90000    90.00000   180.00000     0.11345     0.00000     0.00000     0.00000
    18.00000    90.00000   180.00000     0.11333     0.00000     0.00000     0.00000
    18.10000    90.00000   180.00000     0.11320     0.00000     0.00000     0.00000
    18.20000    90.00000   180.00000     0.11308     0.00000     0.00000     0.00000
    18.30000    90.00000   180.00000     0.11296     0.00000     0.00000     0.00000
    18.40000    90.00000   180.00000     0.11284     0.00000     0.00000     0.00000
    18.50000    90.00000   180.00000     0.11272     0.00000     0.00000     0.00000
    18.60000    90.00000   180.00000     0.11260     0.00000     0.00000     0.00000
    18.70000    90.00000   180.00000     0.11248     0.00000     0.00000     0.00000
    18.80000    90.00000   180.00000     0.11235     0.00000     0.00000     0.00000
    18.90000    90.00000   180.00000     0.11223     0.00000     0.00000     0.00000
    19.00000    90.00000   180.00000     0.11211     0.00000     0.00000     0.00000
    19.10000    90.00000   180.00000     0.11199     0.00000     0.00000     0.00000
    19.20000    90.00000   180.00000     0.11187     0.00000     0.00000     0.00000
    19.30000    90.00000   180.00000     0.11175     0.00000     0.00000     0.00000
    19.40000    90.00000   180.00000     0.11163     0.00000     0.00000     0.00000
    19.50000    90.00000   180.00000     0.11150     0.00000     0.00000     0.00000
    19.60000    90.00000   180.00000     0.11138     0.00000     0.00000     0.00000
    19.70000    90.00000   180.00000     0.11126     0.00000     0.00000     0.00000
    19.80000    90.00000   180.00000     0.11114     0.00000     0.00000     0.00000
    19.90000    90.00000   180.00000     0.11102     0.00000     0.00000     0.00000
    20.00000    90.00000   180.00000     0.11090     0.00000     0.00000     0.00000
    20.10000    90.00000   180.00000     0.11078     0.00000     0.00000     0.00000
    20.20000    90.00000   180.00000     0.11066     0.00000     0.00000     0.00000
    20.30000    90.00000   180.00000     0.11053     0.00000     0.00000     0.00000
    20.40000    90.00000   180.00000     0.11041     0.00000     0.00000     0.00000
    20.50000    90.00000   180.00000     0.11029     0.00000     0.00000     0.00000
    20.60000    90.00000   180.00000     0.11017     0.00000     0.00000     0.00000
    20.70000    90.00000   180.00000     0.11005     0.00000     0.00000     0.00000
    20.80000    90.00000   180.00000     0.10993     0.00000     0.00000     0.00000
    20.90000    90.00000   180.00000     0.10981     0.00000     0.00000     0.00000
    21.00000    90.00000   180.00000     0.10969     0.00000     0.00000     0.00000
    21.10000    90.00000   180.00000     0.10957     0.00000     0.00000     0.00000
    21.20000    90.00000   180.00000     0.10944     0.00000     0.00000     0.00000
    21.30000    90.00000   180.00000     0.10932     0.00000     0.00000     0.00000
    21.40000    90.00000   180.00000     0.10920     0.00000     0.00000     0.00000
    21.50000    90.00000   180.00000     0.10908     0.00000     0.00000     0.00000
    21.60000    90.00000   180.00000     0.10896     0.00000     0.00000     0.00000
    21.70000    90.00000   180.00000     0.10884     0.00000     0.00000     0.00000
    21.80000    90.00000   180.00000     0.10872     0.00000     0.00000     0.00000
    21.90000    90.00000   180.00000     0.10860     0.00000     0.00000     0.00000
    22.00000    90.00000   180.00000     0.10848     0.00000     0.00000     0.00000
    22.10000    90.00000   180.00000     0.10835     0.00000     0.00000     0.00000
    22.20000    90.00000   180.00000     0.10823     0.00000     0.00000     0.00000
    22.30000    90.00000   180.00000     0.10811     0.00000     0.00000     0.00000
    22.40000    90.00000   180.00000     0.10799     0.00000     0.00000     0.00000
    22.50000    90.00000   180.00000     0.10787     0.00000     0.00000     0.00000
    22.60000    90.00000   180.00000     0.10775     0.00000     0.00000     0.00000
    22.70000    90.00000   180.00000     0.10763     0.00000     0.00000     0.00000
    22.80000    90.00000   180.00000     0.10751     0.00000     0.00000     0.00000
    22.90000    90.00000   180.00000     0.10739     0.00000     0.00000     0.00000
    23.00000    90.00000   180.00000     0.10727     0.00000     0.00000     0.00000
    23.10000    90.00000   180.00000     0.10714     0.00000     0.00000     0.00000
    23.20000    90.00000   180.00000     0.10702     0.00000     0.00000     0.00000
    23.30000    90.00000   180.00000     0.10690     0.00000     0.00000     0.00000
