 # applied field (T), magnetization (2 f.u.), magnetization (T)
  0.000000000000000E+000  2.282326616413516E-015  7.681931311378787E-017
  0.100000000000000       0.706961043945553       2.379513142577492E-002
  0.200000000000000        1.41367783192401       4.758204160246084E-002
  0.300000000000000        2.11989650218423       7.135218596627393E-002
  0.400000000000000        2.82536327458922       9.509702270042769E-002
  0.500000000000000        3.56684509091701       0.120054065836599     
  0.600000000000000        4.26997436523297       0.143720226277749     
  0.700000000000000        4.97157865218578       0.167335058183840     
  0.800000000000000        5.70816094527090       0.192127191526917     
  0.900000000000000        6.44248025775592       0.216843156711572     
   1.00000000000000        7.13774305421906       0.240244544608366     
   1.10000000000000        7.86680800914188       0.264783656867643     
   1.20000000000000        8.62893658274380       0.290435635470289     
   1.30000000000000        9.35128544727092       0.314748695311258     
   1.40000000000000        10.1057246646069       0.340141862987201     
   1.50000000000000        10.8557344450700       0.365385943194411     
   1.60000000000000        11.6009846001027       0.390469822335917     
   1.70000000000000        12.3762397965850       0.416563621204744     
   1.80000000000000        13.1455367082475       0.442456874128962     
   1.90000000000000        13.9085034717992       0.468137064809469     
   2.00000000000000        14.6989627109365       0.494742606434529     
   2.10000000000000        15.4816826608819       0.521087656473751     
   2.20000000000000        16.2897170314376       0.548284747754213     
   2.30000000000000        17.1214612717404       0.576279873765937     
   2.40000000000000        17.9425491213677       0.603916323413780     
   2.50000000000000        18.7846083355150       0.632258634267421     
   2.60000000000000        19.6772469897075       0.662303364842243     
   2.70000000000000        20.5545140710119       0.691830713872172     
   2.80000000000000        21.4461580328893       0.721841964760141     
   2.90000000000000        22.3793658375523       0.753252185379348     
   3.00000000000000        23.3201594947641       0.784917733162509     
   3.10000000000000        24.2936065888145       0.817682341251371     
   3.20000000000000        25.3210328328059       0.852263797634912     
   3.30000000000000        26.3664836427685       0.887451930892447     
   3.40000000000000        27.4726279102127       0.924682904855036     
   3.50000000000000        28.6234893075653       0.963418982942197     
   3.60000000000000        29.8452340784684        1.00454087733986     
   3.70000000000000        31.1268586134812        1.04767822487874     
   3.80000000000000        32.5343200793459        1.09505103395186     
   3.90000000000000        34.1046340594731        1.14790518745418     
   4.00000000000000        35.8727946572350        1.20741852862898     
   4.10000000000000        37.2186683701311        1.25271839650023     
   4.20000000000000        37.2189210602186        1.25272690162777     
   4.30000000000000        37.2191737282472        1.25273540601284     
   4.40000000000000        37.2194263742256        1.25274390965573     
   4.50000000000000        37.2196789981623        1.25275241255674     
   4.60000000000000        37.2199316000659        1.25276091471616     
   4.70000000000000        37.2201841799450        1.25276941613426     
   4.80000000000000        37.2204367378082        1.25277791681135     
   4.90000000000000        37.2206892736641        1.25278641674771     
   5.00000000000000        37.2209417875213        1.25279491594363     
   5.10000000000000        37.2211942793883        1.25280341439939     
   5.20000000000000        37.2214467492738        1.25281191211529     
   5.30000000000000        37.2216991971864        1.25282040909162     
   5.40000000000000        37.2219516231345        1.25282890532867     
   5.50000000000000        37.2222040271269        1.25283740082672     
   5.60000000000000        37.2224564091721        1.25284589558607     
   5.70000000000000        37.2227087692787        1.25285438960700     
   5.80000000000000        37.2229611074553        1.25286288288980     
   5.90000000000000        37.2232134237105        1.25287137543476     
   6.00000000000000        37.2234657180529        1.25287986724218     
   6.10000000000000        37.2237179904910        1.25288835831233     
   6.20000000000000        37.2239702410336        1.25289684864552     
   6.30000000000000        37.2242224696891        1.25290533824202     
   6.40000000000000        37.2244746764661        1.25291382710213     
   6.50000000000000        37.2247268613733        1.25292231522614     
   6.60000000000000        37.2249790244192        1.25293080261434     
   6.70000000000000        37.2252311656125        1.25293928926701     
   6.80000000000000        37.2254832849617        1.25294777518444     
   6.90000000000000        37.2257353824755        1.25295626036693     
   7.00000000000000        37.2259874581623        1.25296474481477     
   7.10000000000000        37.2262395120309        1.25297322852823     
   7.20000000000000        37.2264915440898        1.25298171150762     
   7.30000000000000        37.2267435543476        1.25299019375322     
   7.40000000000000        37.2269955428129        1.25299867526533     
   7.50000000000000        37.2272475094944        1.25300715604422     
   7.60000000000000        37.2274994544005        1.25301563609019     
   7.70000000000000        37.2277513775399        1.25302411540353     
   7.80000000000000        37.2280032789212        1.25303259398453     
   7.90000000000000        37.2282551585531        1.25304107183348     
   8.00000000000000        37.2285070164440        1.25304954895067     
   8.10000000000000        37.2287588526026        1.25305802533638     
   8.20000000000000        37.2290106670375        1.25306650099091     
   8.30000000000000        37.2292624597573        1.25307497591454     
   8.40000000000000        37.2295142307706        1.25308345010757     
   8.50000000000000        37.2297659800860        1.25309192357029     
   8.60000000000000        37.2300177077121        1.25310039630297     
   8.70000000000000        37.2302694136575        1.25310886830593     
   8.80000000000000        37.2305210979308        1.25311733957943     
   8.90000000000000        37.2307727605405        1.25312581012378     
   9.00000000000000        37.2310244014954        1.25313427993926     
   9.10000000000000        37.2312760208039        1.25314274902616     
   9.20000000000000        37.2315276184748        1.25315121738477     
   9.30000000000000        37.2317791945166        1.25315968501538     
   9.40000000000000        37.2320307489379        1.25316815191828     
   9.50000000000000        37.2322822817472        1.25317661809377     
   9.60000000000000        37.2325337929533        1.25318508354212     
   9.70000000000000        37.2327852825647        1.25319354826363     
   9.80000000000000        37.2330367505901        1.25320201225859     
   9.90000000000000        37.2332881970379        1.25321047552728     
   10.0000000000000        37.2335396219169        1.25321893807001     
   10.1000000000000        37.2337910252356        1.25322739988705     
   10.2000000000000        37.2340424070027        1.25323586097870     
   10.3000000000000        37.2342937672267        1.25324432134525     
   10.4000000000000        37.2345451059162        1.25325278098698     
   10.5000000000000        37.2347964230799        1.25326123990418     
   10.6000000000000        37.2350477187264        1.25326969809716     
   10.7000000000000        37.2352989928642        1.25327815556619     
   10.8000000000000        37.2355502455020        1.25328661231156     
   10.9000000000000        37.2358014766485        1.25329506833357     
   11.0000000000000        37.2360526863120        1.25330352363250     
   11.1000000000000        37.2363038745014        1.25331197820865     
   11.2000000000000        37.2365550412252        1.25332043206230     
   11.3000000000000        37.2368061864920        1.25332888519374     
   11.4000000000000        37.2370573103104        1.25333733760327     
   11.5000000000000        37.2373084126891        1.25334578929117     
   11.6000000000000        37.2375594936366        1.25335424025774     
   11.7000000000000        37.2378105531615        1.25336269050325     
   11.8000000000000        37.2380615912726        1.25337114002801     
   11.9000000000000        37.2383126079782        1.25337958883230     
   12.0000000000000        37.2385636032872        1.25338803691642     
   12.1000000000000        37.2388145772081        1.25339648428064     
   12.2000000000000        37.2390655297494        1.25340493092527     
   12.3000000000000        37.2393164609199        1.25341337685059     
   12.4000000000000        37.2395673707281        1.25342182205689     
   12.5000000000000        37.2398182591826        1.25343026654446     
   12.6000000000000        37.2400691262921        1.25343871031359     
   12.7000000000000        37.2403199720652        1.25344715336457     
   12.8000000000000        37.2405707965104        1.25345559569770     
   12.9000000000000        37.2408215996364        1.25346403731325     
   13.0000000000000        37.2410723814518        1.25347247821153     
   13.1000000000000        37.2413231419652        1.25348091839282     
   13.2000000000000        37.2415738811853        1.25348935785740     
   13.3000000000000        37.2418245991206        1.25349779660558     
   13.4000000000000        37.2420752957797        1.25350623463764     
   13.5000000000000        37.2423259711714        1.25351467195387     
   13.6000000000000        37.2425766253041        1.25352310855456     
   13.7000000000000        37.2428272581865        1.25353154444000     
   13.8000000000000        37.2430778698273        1.25353997961047     
   13.9000000000000        37.2433284602349        1.25354841406629     
   14.0000000000000        37.2435790294182        1.25355684780772     
   14.1000000000000        37.2438295773856        1.25356528083506     
   14.2000000000000        37.2440801041457        1.25357371314860     
   14.3000000000000        37.2443306097073        1.25358214474863     
   14.4000000000000        37.2445810940789        1.25359057563544     
   14.5000000000000        37.2448315572691        1.25359900580933     
   14.6000000000000        37.2450819992866        1.25360743527057     
   14.7000000000000        37.2453324201400        1.25361586401946     
   14.8000000000000        37.2455828198378        1.25362429205630     
   14.9000000000000        37.2458331983888        1.25363271938136     
   15.0000000000000        37.2460835558015        1.25364114599495     
   15.1000000000000        37.2463338920846        1.25364957189735     
   15.2000000000000        37.2465842072466        1.25365799708885     
   15.3000000000000        37.2468345012962        1.25366642156974     
   15.4000000000000        37.2470847742420        1.25367484534031     
   15.5000000000000        37.2473350260926        1.25368326840086     
   15.6000000000000        37.2475852568567        1.25369169075166     
   15.7000000000000        37.2478354665429        1.25370011239302     
   15.8000000000000        37.2480856551597        1.25370853332522     
   15.9000000000000        37.2483358227159        1.25371695354855     
   16.0000000000000        37.2485859692200        1.25372537306331     
   16.1000000000000        37.2488360946807        1.25373379186978     
   16.2000000000000        37.2490861991065        1.25374220996825     
   16.3000000000000        37.2493362825062        1.25375062735901     
   16.4000000000000        37.2495863448883        1.25375904404236     
   16.5000000000000        37.2498363862614        1.25376746001858     
   16.6000000000000        37.2500864066342        1.25377587528797     
   16.7000000000000        37.2503364060153        1.25378428985081     
   16.8000000000000        37.2505863844134        1.25379270370739     
   16.9000000000000        37.2508363418369        1.25380111685801     
   17.0000000000000        37.2510862782947        1.25380952930296     
   17.1000000000000        37.2513361937952        1.25381794104252     
   17.2000000000000        37.2515860883472        1.25382635207699     
   17.3000000000000        37.2518359619592        1.25383476240665     
   17.4000000000000        37.2520858146399        1.25384317203180     
   17.5000000000000        37.2523356463980        1.25385158095272     
   17.6000000000000        37.2525854572419        1.25385998916971     
   17.7000000000000        37.2528352471804        1.25386839668307     
   17.8000000000000        37.2530850162220        1.25387680349306     
   17.9000000000000        37.2533347643755        1.25388520960000     
   18.0000000000000        37.2535844916495        1.25389361500417     
   18.1000000000000        37.2538341980524        1.25390201970585     
   18.2000000000000        37.2540838835931        1.25391042370534     
   18.3000000000000        37.2543335482801        1.25391882700294     
   18.4000000000000        37.2545831921221        1.25392722959892     
   18.5000000000000        37.2548328151276        1.25393563149359     
   18.6000000000000        37.2550824173053        1.25394403268722     
   18.7000000000000        37.2553319986639        1.25395243318012     
   18.8000000000000        37.2555815592120        1.25396083297257     
   18.9000000000000        37.2558310989581        1.25396923206487     
   19.0000000000000        37.2560806179110        1.25397763045729     
   19.1000000000000        37.2563301160792        1.25398602815014     
   19.2000000000000        37.2565795934715        1.25399442514371     
   19.3000000000000        37.2568290500963        1.25400282143827     
   19.4000000000000        37.2570784859625        1.25401121703414     
   19.5000000000000        37.2573279010785        1.25401961193159     
   19.6000000000000        37.2575772954530        1.25402800613091     
   19.7000000000000        37.2578266690947        1.25403639963241     
   19.8000000000000        37.2580760220121        1.25404479243636     
   19.9000000000000        37.2583253542140        1.25405318454306     
   20.0000000000000        37.2585746657089        1.25406157595279     
   20.1000000000000        37.2588239565056        1.25406996666586     
   20.2000000000000        37.2590732266125        1.25407835668254     
   20.3000000000000        37.2593224760384        1.25408674600314     
   20.4000000000000        37.2595717047919        1.25409513462794     
   20.5000000000000        37.2598209128816        1.25410352255723     
   20.6000000000000        37.2600701003161        1.25411190979130     
   20.7000000000000        37.2603192671042        1.25412029633044     
   20.8000000000000        37.2605684132543        1.25412868217495     
   20.9000000000000        37.2608175387753        1.25413706732511     
   21.0000000000000        37.2610666436756        1.25414545178122     
   21.1000000000000        37.2613157279640        1.25415383554356     
   21.2000000000000        37.2615647916491        1.25416221861243     
   21.3000000000000        37.2618138347394        1.25417060098812     
   21.4000000000000        37.2620628572437        1.25417898267091     
   21.5000000000000        37.2623118591706        1.25418736366111     
   21.6000000000000        37.2625608405288        1.25419574395899     
   21.7000000000000        37.2628098013267        1.25420412356485     
   21.8000000000000        37.2630587415732        1.25421250247898     
   21.9000000000000        37.2633076612768        1.25422088070168     
   22.0000000000000        37.2635565604462        1.25422925823322     
   22.1000000000000        37.2638054390901        1.25423763507391     
   22.2000000000000        37.2640542972169        1.25424601122403     
   22.3000000000000        37.2643031348355        1.25425438668388     
   22.4000000000000        37.2645519519544        1.25426276145374     
   22.5000000000000        37.2648007485823        1.25427113553391     
   22.6000000000000        37.2650495247278        1.25427950892468     
   22.7000000000000        37.2652982803995        1.25428788162634     
   22.8000000000000        37.2655470156062        1.25429625363917     
   22.9000000000000        37.2657957303564        1.25430462496347     
   23.0000000000000        37.2660444246587        1.25431299559954     
   23.1000000000000        37.2662930985220        1.25432136554765     
   23.2000000000000        37.2665417519546        1.25432973480811     
   23.3000000000000        37.2667903849654        1.25433810338120     
   23.4000000000000        37.2670389975629        1.25434647126721     
   23.5000000000000        37.2672875897558        1.25435483846644     
   23.6000000000000        37.2675361615528        1.25436320497918     
   23.7000000000000        37.2677847129624        1.25437157080571     
   23.8000000000000        37.2680332439934        1.25437993594633     
   23.9000000000000        37.2682817546543        1.25438830040132     
   24.0000000000000        37.2685302449539        1.25439666417099     
   24.1000000000000        37.2687787149007        1.25440502725562     
   24.2000000000000        37.2690271645034        1.25441338965550     
   24.3000000000000        37.2692755937706        1.25442175137092     
   24.4000000000000        37.2695240027111        1.25443011240218     
   24.5000000000000        37.2697723913334        1.25443847274956     
   24.6000000000000        37.2700207596462        1.25444683241336     
   24.7000000000000        37.2702691076581        1.25445519139386     
   24.8000000000000        37.2705174353777        1.25446354969136     
   24.9000000000000        37.2707657428139        1.25447190730615     
   25.0000000000000        37.2710140299750        1.25448026423852     
   25.1000000000000        37.2712622968699        1.25448862048876     
   25.2000000000000        37.2715105435072        1.25449697605716     
   25.3000000000000        37.2717587698955        1.25450533094402     
   25.4000000000000        37.2720069760435        1.25451368514961     
   25.5000000000000        37.2722551619597        1.25452203867425     
   25.6000000000000        37.2725033276530        1.25453039151821     
   25.7000000000000        37.2727514731318        1.25453874368178     
   25.8000000000000        37.2729995984049        1.25454709516527     
   25.9000000000000        37.2732477034809        1.25455544596896     
   26.0000000000000        37.2734957883685        1.25456379609313     
   26.1000000000000        37.2737438530763        1.25457214553809     
   26.2000000000000        37.2739918976129        1.25458049430412     
   26.3000000000000        37.2742399219871        1.25458884239152     
   26.4000000000000        37.2744879262074        1.25459718980057     
   26.5000000000000        37.2747359102825        1.25460553653156     
   26.6000000000000        37.2749838742211        1.25461388258480     
   26.7000000000000        37.2752318180318        1.25462222796056     
   26.8000000000000        37.2754797417233        1.25463057265915     
   26.9000000000000        37.2757276453042        1.25463891668084     
   27.0000000000000        37.2759755287832        1.25464726002594     
   27.1000000000000        37.2762233921689        1.25465560269473     
   27.2000000000000        37.2764712354699        1.25466394468751     
