 # applied field (T), magnetization (2 f.u.), magnetization (T)
 # T=0 1st order approx.
 # K1(0) (K, MJ/m^3)   88.0582362464699        7.17932127526250     
 # K2(0) (K, MJ/m^3)  -11.8115230089574      -0.962984520767755     
 # from A20
 # K1(0) from A20 (K, MJ/m^3)   74.5593528076614        3.03938376862110     
  0.000000000000000E+000  3.193805480379131E-015  1.098970614228260E-016
  0.100000000000000       0.554626207905859       1.908437780929095E-002
  0.200000000000000        1.10915931581476       3.816555209972432E-002
  0.300000000000000        1.66350623831006       5.724031985414246E-002
  0.400000000000000        2.21757391913517       7.630547905877022E-002
  0.500000000000000        2.72872793931912       9.389400318704962E-002
  0.600000000000000        3.28199721454408       0.112931689701240     
  0.700000000000000        3.83471553694285       0.131950418236632     
  0.800000000000000        4.38679010544017       0.150946995560098     
  0.900000000000000        4.93812821987731       0.169918231910988     
   1.00000000000000        5.48863729557890       0.188860941502375     
   1.10000000000000        6.03822487791585       0.207771943022147     
   1.20000000000000        6.62891708236682       0.228097331613699     
   1.30000000000000        7.17629608294845       0.246932337069743     
   1.40000000000000        7.72247008932779       0.265725879348810     
   1.50000000000000        8.26734732764114       0.284474800563547     
   1.60000000000000        8.81083622792082       0.303175949842547     
   1.70000000000000        9.39443998962405       0.323257429081188     
   1.80000000000000        9.93475387876389       0.341849328001519     
   1.90000000000000        10.4733991137190       0.360383809464036     
   2.00000000000000        11.0514742836167       0.380275052948819     
   2.10000000000000        11.5863648155839       0.398680337180193     
   2.20000000000000        12.1601872918789       0.418425247855120     
   2.30000000000000        12.7316405471100       0.438088634957504     
   2.40000000000000        13.3006130279035       0.457666659998103     
   2.50000000000000        13.8266575044464       0.475767556406768     
   2.60000000000000        14.3905321897441       0.495170169153735     
   2.70000000000000        14.9516021002053       0.514476271166290     
   2.80000000000000        15.5494805115170       0.535048933119235     
   2.90000000000000        16.1043924834632       0.554143143909428     
   3.00000000000000        16.6561646505020       0.573129315767732     
   3.10000000000000        17.2437117920438       0.593346484502491     
   3.20000000000000        17.7886375714888       0.612097075990437     
   3.30000000000000        18.3686037013914       0.632053386352048     
   3.40000000000000        18.9444571164897       0.651868180496021     
   3.50000000000000        19.5160683366306       0.671537003082657     
   3.60000000000000        20.0833087867938       0.691055429917372     
   3.70000000000000        20.6833763992247       0.711703421057190     
   3.80000000000000        21.2411807010638       0.730897155302347     
   3.90000000000000        21.8308961423400       0.751188934019009     
   4.00000000000000        22.4150459872786       0.771289203676553     
   4.10000000000000        22.9934804345443       0.791192809694754     
   4.20000000000000        23.5660510829113       0.810894645670381     
   4.30000000000000        24.1677933490552       0.831600260708425     
   4.40000000000000        24.7625760076608       0.852066399541106     
   4.50000000000000        25.3502265563057       0.872287126456486     
   4.60000000000000        25.9305744784623       0.892256574076156     
   4.70000000000000        26.5368912390842       0.913119594912305     
   4.80000000000000        27.1346350994277       0.933687627041640     
   4.90000000000000        27.7236113175407       0.953953969502443     
   5.00000000000000        28.3355639442255       0.975010917339685     
   5.10000000000000        28.9373118684993       0.995716727070816     
   5.20000000000000        29.5594467366752        1.01712404014647     
   5.30000000000000        30.1697817432586        1.03812532658018     
   5.40000000000000        30.7976469341924        1.05972981685900     
   5.50000000000000        31.4119525420002        1.08086772946150     
   5.60000000000000        32.0124251029758        1.10152965465440     
   5.70000000000000        32.6538647570658        1.12360123462307     
   5.80000000000000        33.2780483238129        1.14507904227145     
   5.90000000000000        33.9105971107731        1.16684469247168     
   6.00000000000000        34.5487252742216        1.18880232589831     
   6.10000000000000        35.1894629713988        1.21084975192196     
   6.20000000000000        35.8296522861382        1.23287830841245     
   6.30000000000000        36.4659439513152        1.25477274896006     
   6.40000000000000        37.1159153588165        1.27713790179484     
   6.50000000000000        37.7723459248576        1.29972531066468     
   6.60000000000000        38.4459444719034        1.32290346016495     
   6.70000000000000        39.1067408516682        1.34564109424477     
   6.80000000000000        39.7762993473763        1.36868022783667     
   6.90000000000000        40.4477182241507        1.39178337610122     
   7.00000000000000        41.1378057755570        1.41552890302512     
   7.10000000000000        41.8183855610284        1.43894727303750     
   7.20000000000000        42.5156878929328        1.46294105652568     
   7.30000000000000        42.6891794903216        1.46891080541981     
   7.40000000000000        42.6894275985362        1.46891934268480     
   7.50000000000000        42.6896756843682        1.46892787917961     
   7.60000000000000        42.6899237478257        1.46893641490453     
   7.70000000000000        42.6901717889172        1.46894494985985     
   7.80000000000000        42.6904198076507        1.46895348404584     
   7.90000000000000        42.6906678040346        1.46896201746279     
   8.00000000000000        42.6909157780771        1.46897055011099     
   8.10000000000000        42.6911637297864        1.46897908199072     
   8.20000000000000        42.6914116591709        1.46898761310226     
   8.30000000000000        42.6916595662387        1.46899614344590     
   8.40000000000000        42.6919074509982        1.46900467302192     
   8.50000000000000        42.6921553134575        1.46901320183060     
   8.60000000000000        42.6924031536249        1.46902172987223     
   8.70000000000000        42.6926509715086        1.46903025714710     
   8.80000000000000        42.6928987671170        1.46903878365548     
   8.90000000000000        42.6931465404583        1.46904730939766     
   9.00000000000000        42.6933942915406        1.46905583437392     
   9.10000000000000        42.6936420203724        1.46906435858456     
   9.20000000000000        42.6938897269617        1.46907288202984     
   9.30000000000000        42.6941374113170        1.46908140471007     
   9.40000000000000        42.6943850734464        1.46908992662551     
   9.50000000000000        42.6946327133581        1.46909844777646     
   9.60000000000000        42.6948803310605        1.46910696816319     
   9.70000000000000        42.6951279265618        1.46911548778600     
   9.80000000000000        42.6953754998703        1.46912400664516     
   9.90000000000000        42.6956230509942        1.46913252474097     
   10.0000000000000        42.6958705799417        1.46914104207370     
   10.1000000000000        42.6961180867211        1.46914955864364     
   10.2000000000000        42.6963655713407        1.46915807445107     
   10.3000000000000        42.6966130338088        1.46916658949628     
   10.4000000000000        42.6968604741335        1.46917510377954     
   10.5000000000000        42.6971078923232        1.46918361730116     
   10.6000000000000        42.6973552883861        1.46919213006140     
   10.7000000000000        42.6976026623305        1.46920064206056     
   10.8000000000000        42.6978500141645        1.46920915329891     
   10.9000000000000        42.6980973438966        1.46921766377675     
   11.0000000000000        42.6983446515349        1.46922617349435     
   11.1000000000000        42.6985919370876        1.46923468245200     
   11.2000000000000        42.6988392005632        1.46924319064999     
   11.3000000000000        42.6990864419697        1.46925169808860     
   11.4000000000000        42.6993336613155        1.46926020476810     
   11.5000000000000        42.6995808586088        1.46926871068880     
   11.6000000000000        42.6998280338580        1.46927721585096     
   11.7000000000000        42.7000751870712        1.46928572025489     
   11.8000000000000        42.7003223182567        1.46929422390085     
   11.9000000000000        42.7005694274228        1.46930272678913     
   12.0000000000000        42.7008165145777        1.46931122892003     
   12.1000000000000        42.7010635797298        1.46931973029381     
   12.2000000000000        42.7013106228872        1.46932823091077     
   12.3000000000000        42.7015576440582        1.46933673077120     
   12.4000000000000        42.7018046432511        1.46934522987537     
   12.5000000000000        42.7020516204742        1.46935372822357     
   12.6000000000000        42.7022985757356        1.46936222581608     
   12.7000000000000        42.7025455090438        1.46937072265319     
   12.8000000000000        42.7027924204069        1.46937921873519     
   12.9000000000000        42.7030393098332        1.46938771406235     
   13.0000000000000        42.7032861773310        1.46939620863496     
   13.1000000000000        42.7035330229085        1.46940470245331     
   13.2000000000000        42.7037798465741        1.46941319551768     
   13.3000000000000        42.7040266483358        1.46942168782836     
   13.4000000000000        42.7042734282022        1.46943017938562     
   13.5000000000000        42.7045201861813        1.46943867018976     
   13.6000000000000        42.7047669222815        1.46944716024106     
   13.7000000000000        42.7050136365110        1.46945564953980     
   13.8000000000000        42.7052603288782        1.46946413808626     
   13.9000000000000        42.7055069993912        1.46947262588074     
   14.0000000000000        42.7057536480583        1.46948111292351     
   14.1000000000000        42.7060002748878        1.46948959921487     
   14.2000000000000        42.7062468798880        1.46949808475509     
   14.3000000000000        42.7064934630672        1.46950656954445     
   14.4000000000000        42.7067400244336        1.46951505358326     
   14.5000000000000        42.7069865639954        1.46952353687178     
   14.6000000000000        42.7072330817610        1.46953201941030     
   14.7000000000000        42.7074795777386        1.46954050119911     
   14.8000000000000        42.7077260519365        1.46954898223850     
   14.9000000000000        42.7079725043629        1.46955746252874     
   15.0000000000000        42.7082189350262        1.46956594207012     
   15.1000000000000        42.7084653439346        1.46957442086293     
   15.2000000000000        42.7087117310964        1.46958289890745     
   15.3000000000000        42.7089580965197        1.46959137620397     
   15.4000000000000        42.7092044402130        1.46959985275276     
   15.5000000000000        42.7094507621845        1.46960832855412     
   15.6000000000000        42.7096970624425        1.46961680360833     
   15.7000000000000        42.7099433409952        1.46962527791567     
   15.8000000000000        42.7101895978509        1.46963375147643     
   15.9000000000000        42.7104358330178        1.46964222429089     
   16.0000000000000        42.7106820465043        1.46965069635934     
   16.1000000000000        42.7109282383187        1.46965916768207     
   16.2000000000000        42.7111744084691        1.46966763825935     
   16.3000000000000        42.7114205569639        1.46967610809147     
   16.4000000000000        42.7116666838114        1.46968457717872     
   16.5000000000000        42.7119127890198        1.46969304552138     
   16.6000000000000        42.7121588725973        1.46970151311974     
   16.7000000000000        42.7124049345524        1.46970997997408     
   16.8000000000000        42.7126509748932        1.46971844608468     
   16.9000000000000        42.7128969936280        1.46972691145184     
   17.0000000000000        42.7131429907651        1.46973537607583     
   17.1000000000000        42.7133889663128        1.46974383995694     
   17.2000000000000        42.7136349202794        1.46975230309545     
   17.3000000000000        42.7138808526731        1.46976076549166     
   17.4000000000000        42.7141267635022        1.46976922714584     
   17.5000000000000        42.7143726527750        1.46977768805828     
   17.6000000000000        42.7146185204998        1.46978614822926     
   17.7000000000000        42.7148643666848        1.46979460765907     
   17.8000000000000        42.7151101913383        1.46980306634800     
   17.9000000000000        42.7153559944686        1.46981152429632     
   18.0000000000000        42.7156017760840        1.46981998150433     
   18.1000000000000        42.7158475361928        1.46982843797231     
   18.2000000000000        42.7160932748032        1.46983689370054     
   18.3000000000000        42.7163389919236        1.46984534868931     
   18.4000000000000        42.7165846875621        1.46985380293890     
   18.5000000000000        42.7168303617271        1.46986225644960     
   18.6000000000000        42.7170760144269        1.46987070922169     
   18.7000000000000        42.7173216456698        1.46987916125547     
   18.8000000000000        42.7175672554639        1.46988761255120     
   18.9000000000000        42.7178128438177        1.46989606310918     
   19.0000000000000        42.7180584107393        1.46990451292970     
   19.1000000000000        42.7183039562372        1.46991296201303     
   19.2000000000000        42.7185494803195        1.46992141035947     
   19.3000000000000        42.7187949829945        1.46992985796930     
   19.4000000000000        42.7190404642706        1.46993830484280     
   19.5000000000000        42.7192859241559        1.46994675098025     
   19.6000000000000        42.7195313626588        1.46995519638195     
   19.7000000000000        42.7197767797877        1.46996364104818     
   19.8000000000000        42.7200221755506        1.46997208497922     
   19.9000000000000        42.7202675499561        1.46998052817536     
   20.0000000000000        42.7205129030122        1.46998897063689     
   20.1000000000000        42.7207582347274        1.46999741236408     
   20.2000000000000        42.7210035451099        1.47000585335723     
   20.3000000000000        42.7212488341679        1.47001429361661     
   20.4000000000000        42.7214941019098        1.47002273314252     
   20.5000000000000        42.7217393483439        1.47003117193524     
   20.6000000000000        42.7219845734784        1.47003960999505     
   20.7000000000000        42.7222297773217        1.47004804732224     
   20.8000000000000        42.7224749598819        1.47005648391709     
   20.9000000000000        42.7227201211675        1.47006491977990     
   21.0000000000000        42.7229652611867        1.47007335491094     
   21.1000000000000        42.7232103799477        1.47008178931050     
   21.2000000000000        42.7234554774590        1.47009022297887     
   21.3000000000000        42.7237005537287        1.47009865591632     
   21.4000000000000        42.7239456087651        1.47010708812315     
   21.5000000000000        42.7241906425766        1.47011551959965     
   21.6000000000000        42.7244356551713        1.47012395034609     
   21.7000000000000        42.7246806465578        1.47013238036276     
   21.8000000000000        42.7249256167441        1.47014080964994     
   21.9000000000000        42.7251705657386        1.47014923820793     
   22.0000000000000        42.7254154935496        1.47015766603701     
   22.1000000000000        42.7256604001854        1.47016609313746     
   22.2000000000000        42.7259052856543        1.47017451950956     
   22.3000000000000        42.7261501499645        1.47018294515361     
   22.4000000000000        42.7263949931243        1.47019137006989     
   22.5000000000000        42.7266398151422        1.47019979425868     
   22.6000000000000        42.7268846160262        1.47020821772027     
   22.7000000000000        42.7271293957848        1.47021664045494     
   22.8000000000000        42.7273741544262        1.47022506246299     
   22.9000000000000        42.7276188919587        1.47023348374469     
   23.0000000000000        42.7278636083907        1.47024190430033     
   23.1000000000000        42.7281083037303        1.47025032413020     
   23.2000000000000        42.7283529779859        1.47025874323457     
   23.3000000000000        42.7285976311659        1.47026716161375     
   23.4000000000000        42.7288422632784        1.47027557926800     
   23.5000000000000        42.7290868743318        1.47028399619763     
   23.6000000000000        42.7293314643343        1.47029241240290     
   23.7000000000000        42.7295760332944        1.47030082788412     
   23.8000000000000        42.7298205812202        1.47030924264156     
   23.9000000000000        42.7300651081201        1.47031765667551     
   24.0000000000000        42.7303096140023        1.47032606998625     
   24.1000000000000        42.7305540988752        1.47033448257407     
   24.2000000000000        42.7307985627471        1.47034289443926     
   24.3000000000000        42.7310430056261        1.47035130558210     
   24.4000000000000        42.7312874275208        1.47035971600288     
   24.5000000000000        42.7315318284393        1.47036812570187     
   24.6000000000000        42.7317762083899        1.47037653467938     
   24.7000000000000        42.7320205673810        1.47038494293568     
   24.8000000000000        42.7322649054208        1.47039335047106     
   24.9000000000000        42.7325092225176        1.47040175728580     
   25.0000000000000        42.7327535186798        1.47041016338020     
   25.1000000000000        42.7329977939157        1.47041856875453     
   25.2000000000000        42.7332420482334        1.47042697340907     
   25.3000000000000        42.7334862816414        1.47043537734413     
   25.4000000000000        42.7337304941479        1.47044378055998     
   25.5000000000000        42.7339746857613        1.47045218305691     
   25.6000000000000        42.7342188564898        1.47046058483520     
   25.7000000000000        42.7344630063418        1.47046898589514     
   25.8000000000000        42.7347071353254        1.47047738623701     
   25.9000000000000        42.7349512434492        1.47048578586110     
   26.0000000000000        42.7351953307212        1.47049418476771     
   26.1000000000000        42.7354393971499        1.47050258295710     
   26.2000000000000        42.7356834427436        1.47051098042957     
   26.3000000000000        42.7359274675105        1.47051937718540     
   26.4000000000000        42.7361714714589        1.47052777322488     
   26.5000000000000        42.7364154545972        1.47053616854830     
   26.6000000000000        42.7366594169337        1.47054456315594     
   26.7000000000000        42.7369033584767        1.47055295704808     
   26.8000000000000        42.7371472792343        1.47056135022501     
