 # applied field (T), theta (degree), phi (degree), abs for RE 3-4
     0.00000   180.00000   180.00000     4.40941   180.00000   360.00000     4.44191
     0.10000   179.69155   180.00000     4.40941   179.73542   180.00000     4.44191
     0.20000   179.38307   180.00000     4.40939   179.47084   180.00000     4.44190
     0.30000   179.07455   180.00000     4.40937   179.20624   180.00000     4.44188
     0.40000   178.76597   180.00000     4.40934   178.94161   180.00000     4.44186
     0.50000   178.40592   180.00000     4.40929   178.63279   180.00000     4.44183
     0.60000   178.09714   180.00000     4.40924   178.36808   180.00000     4.44179
     0.70000   177.78822   180.00000     4.40918   178.10331   180.00000     4.44175
     0.80000   177.47916   180.00000     4.40911   177.83847   180.00000     4.44170
     0.90000   177.16993   180.00000     4.40903   177.57356   180.00000     4.44165
     1.00000   176.86050   180.00000     4.40894   177.30858   180.00000     4.44159
     1.10000   176.55087   180.00000     4.40885   177.04350   180.00000     4.44152
     1.20000   176.18940   180.00000     4.40873   176.73408   180.00000     4.44143
     1.30000   175.87924   180.00000     4.40861   176.46878   180.00000     4.44135
     1.40000   175.56880   180.00000     4.40849   176.20336   180.00000     4.44126
     1.50000   175.25807   180.00000     4.40836   175.93781   180.00000     4.44117
     1.60000   174.89521   180.00000     4.40819   175.62781   180.00000     4.44105
     1.70000   174.58376   180.00000     4.40804   175.36195   180.00000     4.44095
     1.80000   174.27195   180.00000     4.40788   175.09595   180.00000     4.44083
     1.90000   173.90776   180.00000     4.40768   174.78537   180.00000     4.44070
     2.00000   173.59509   180.00000     4.40750   174.51900   180.00000     4.44057
     2.10000   173.22985   180.00000     4.40729   174.20797   180.00000     4.44041
     2.20000   172.91624   180.00000     4.40709   173.94119   180.00000     4.44027
     2.30000   172.54984   180.00000     4.40685   173.62967   180.00000     4.44010
     2.40000   172.23519   180.00000     4.40663   173.36244   180.00000     4.43995
     2.50000   171.86752   180.00000     4.40637   173.05036   180.00000     4.43976
     2.60000   171.55173   180.00000     4.40614   172.78265   180.00000     4.43960
     2.70000   171.18269   180.00000     4.40586   172.46998   180.00000     4.43940
     2.80000   170.81286   180.00000     4.40557   172.15697   180.00000     4.43919
     2.90000   170.44221   180.00000     4.40527   171.84361   180.00000     4.43897
     3.00000   170.07072   180.00000     4.40495   171.52988   180.00000     4.43875
     3.10000   169.69836   180.00000     4.40463   171.21576   180.00000     4.43851
     3.20000   169.32508   180.00000     4.40430   170.90125   180.00000     4.43827
     3.30000   168.95088   180.00000     4.40395   170.58633   180.00000     4.43802
     3.40000   168.57570   180.00000     4.40360   170.27098   180.00000     4.43776
     3.50000   168.19953   180.00000     4.40324   169.95520   180.00000     4.43750
     3.60000   167.76846   180.00000     4.40281   169.59373   180.00000     4.43719
     3.70000   167.39007   180.00000     4.40243   169.27696   180.00000     4.43690
     3.80000   166.95638   180.00000     4.40198   168.91433   180.00000     4.43657
     3.90000   166.57564   180.00000     4.40158   168.59650   180.00000     4.43627
     4.00000   166.13920   180.00000     4.40111   168.23263   180.00000     4.43592
     4.10000   165.70123   180.00000     4.40063   167.86807   180.00000     4.43556
     4.20000   165.26171   180.00000     4.40013   167.50279   180.00000     4.43519
     4.30000   164.76542   180.00000     4.39957   167.09098   180.00000     4.43477
     4.40000   164.32246   180.00000     4.39906   166.72413   180.00000     4.43438
     4.50000   163.82222   180.00000     4.39848   166.31049   180.00000     4.43393
     4.60000   163.31982   180.00000     4.39788   165.89583   180.00000     4.43347
     4.70000   162.81522   180.00000     4.39727   165.48014   180.00000     4.43299
     4.80000   162.30838   180.00000     4.39666   165.06337   180.00000     4.43251
     4.90000    90.00000   180.00000     4.40360    90.00000   180.00000     4.36093
     5.00000    90.00000   180.00000     4.40356    90.00000   180.00000     4.36089
     5.10000    90.00000   180.00000     4.40352    90.00000   180.00000     4.36085
     5.20000    90.00000   180.00000     4.40348    90.00000   180.00000     4.36081
     5.30000    90.00000   180.00000     4.40344    90.00000   180.00000     4.36077
     5.40000    90.00000   180.00000     4.40340    90.00000   180.00000     4.36072
     5.50000    90.00000   180.00000     4.40337    90.00000   180.00000     4.36068
     5.60000    90.00000   180.00000     4.40333    90.00000   180.00000     4.36064
     5.70000    90.00000   180.00000     4.40329    90.00000   180.00000     4.36060
     5.80000    90.00000   180.00000     4.40325    90.00000   180.00000     4.36056
     5.90000    90.00000   180.00000     4.40321    90.00000   180.00000     4.36052
     6.00000    90.00000   180.00000     4.40317    90.00000   180.00000     4.36048
     6.10000    90.00000   180.00000     4.40313    90.00000   180.00000     4.36043
     6.20000    90.00000   180.00000     4.40309    90.00000   180.00000     4.36039
     6.30000    90.00000   180.00000     4.40306    90.00000   180.00000     4.36035
     6.40000    90.00000   180.00000     4.40302    90.00000   180.00000     4.36031
     6.50000    90.00000   180.00000     4.40298    90.00000   180.00000     4.36027
     6.60000    90.00000   180.00000     4.40294    90.00000   180.00000     4.36023
     6.70000    90.00000   180.00000     4.40290    90.00000   180.00000     4.36019
     6.80000    90.00000   180.00000     4.40286    90.00000   180.00000     4.36014
     6.90000    90.00000   180.00000     4.40282    90.00000   180.00000     4.36010
     7.00000    90.00000   180.00000     4.40279    90.00000   180.00000     4.36006
     7.10000    90.00000   180.00000     4.40275    90.00000   180.00000     4.36002
     7.20000    90.00000   180.00000     4.40271    90.00000   180.00000     4.35998
     7.30000    90.00000   180.00000     4.40267    90.00000   180.00000     4.35994
     7.40000    90.00000   180.00000     4.40263    90.00000   180.00000     4.35989
     7.50000    90.00000   180.00000     4.40259    90.00000   180.00000     4.35985
     7.60000    90.00000   180.00000     4.40255    90.00000   180.00000     4.35981
     7.70000    90.00000   180.00000     4.40251    90.00000   180.00000     4.35977
     7.80000    90.00000   180.00000     4.40248    90.00000   180.00000     4.35973
     7.90000    90.00000   180.00000     4.40244    90.00000   180.00000     4.35969
     8.00000    90.00000   180.00000     4.40240    90.00000   180.00000     4.35964
     8.10000    90.00000   180.00000     4.40236    90.00000   180.00000     4.35960
     8.20000    90.00000   180.00000     4.40232    90.00000   180.00000     4.35956
     8.30000    90.00000   180.00000     4.40228    90.00000   180.00000     4.35952
     8.40000    90.00000   180.00000     4.40224    90.00000   180.00000     4.35948
     8.50000    90.00000   180.00000     4.40220    90.00000   180.00000     4.35944
     8.60000    90.00000   180.00000     4.40217    90.00000   180.00000     4.35939
     8.70000    90.00000   180.00000     4.40213    90.00000   180.00000     4.35935
     8.80000    90.00000   180.00000     4.40209    90.00000   180.00000     4.35931
     8.90000    90.00000   180.00000     4.40205    90.00000   180.00000     4.35927
     9.00000    90.00000   180.00000     4.40201    90.00000   180.00000     4.35923
     9.10000    90.00000   180.00000     4.40197    90.00000   180.00000     4.35919
     9.20000    90.00000   180.00000     4.40193    90.00000   180.00000     4.35914
     9.30000    90.00000   180.00000     4.40189    90.00000   180.00000     4.35910
     9.40000    90.00000   180.00000     4.40186    90.00000   180.00000     4.35906
     9.50000    90.00000   180.00000     4.40182    90.00000   180.00000     4.35902
     9.60000    90.00000   180.00000     4.40178    90.00000   180.00000     4.35898
     9.70000    90.00000   180.00000     4.40174    90.00000   180.00000     4.35894
     9.80000    90.00000   180.00000     4.40170    90.00000   180.00000     4.35889
     9.90000    90.00000   180.00000     4.40166    90.00000   180.00000     4.35885
    10.00000    90.00000   180.00000     4.40162    90.00000   180.00000     4.35881
    10.10000    90.00000   180.00000     4.40158    90.00000   180.00000     4.35877
    10.20000    90.00000   180.00000     4.40154    90.00000   180.00000     4.35873
    10.30000    90.00000   180.00000     4.40151    90.00000   180.00000     4.35869
    10.40000    90.00000   180.00000     4.40147    90.00000   180.00000     4.35864
    10.50000    90.00000   180.00000     4.40143    90.00000   180.00000     4.35860
    10.60000    90.00000   180.00000     4.40139    90.00000   180.00000     4.35856
    10.70000    90.00000   180.00000     4.40135    90.00000   180.00000     4.35852
    10.80000    90.00000   180.00000     4.40131    90.00000   180.00000     4.35848
    10.90000    90.00000   180.00000     4.40127    90.00000   180.00000     4.35844
    11.00000    90.00000   180.00000     4.40123    90.00000   180.00000     4.35839
    11.10000    90.00000   180.00000     4.40119    90.00000   180.00000     4.35835
    11.20000    90.00000   180.00000     4.40116    90.00000   180.00000     4.35831
    11.30000    90.00000   180.00000     4.40112    90.00000   180.00000     4.35827
    11.40000    90.00000   180.00000     4.40108    90.00000   180.00000     4.35823
    11.50000    90.00000   180.00000     4.40104    90.00000   180.00000     4.35818
    11.60000    90.00000   180.00000     4.40100    90.00000   180.00000     4.35814
    11.70000    90.00000   180.00000     4.40096    90.00000   180.00000     4.35810
    11.80000    90.00000   180.00000     4.40092    90.00000   180.00000     4.35806
    11.90000    90.00000   180.00000     4.40088    90.00000   180.00000     4.35802
    12.00000    90.00000   180.00000     4.40084    90.00000   180.00000     4.35798
    12.10000    90.00000   180.00000     4.40081    90.00000   180.00000     4.35793
    12.20000    90.00000   180.00000     4.40077    90.00000   180.00000     4.35789
    12.30000    90.00000   180.00000     4.40073    90.00000   180.00000     4.35785
    12.40000    90.00000   180.00000     4.40069    90.00000   180.00000     4.35781
    12.50000    90.00000   180.00000     4.40065    90.00000   180.00000     4.35777
    12.60000    90.00000   180.00000     4.40061    90.00000   180.00000     4.35772
    12.70000    90.00000   180.00000     4.40057    90.00000   180.00000     4.35768
    12.80000    90.00000   180.00000     4.40053    90.00000   180.00000     4.35764
    12.90000    90.00000   180.00000     4.40049    90.00000   180.00000     4.35760
    13.00000    90.00000   180.00000     4.40046    90.00000   180.00000     4.35756
    13.10000    90.00000   180.00000     4.40042    90.00000   180.00000     4.35751
    13.20000    90.00000   180.00000     4.40038    90.00000   180.00000     4.35747
    13.30000    90.00000   180.00000     4.40034    90.00000   180.00000     4.35743
    13.40000    90.00000   180.00000     4.40030    90.00000   180.00000     4.35739
    13.50000    90.00000   180.00000     4.40026    90.00000   180.00000     4.35735
    13.60000    90.00000   180.00000     4.40022    90.00000   180.00000     4.35731
    13.70000    90.00000   180.00000     4.40018    90.00000   180.00000     4.35726
    13.80000    90.00000   180.00000     4.40014    90.00000   180.00000     4.35722
    13.90000    90.00000   180.00000     4.40010    90.00000   180.00000     4.35718
    14.00000    90.00000   180.00000     4.40007    90.00000   180.00000     4.35714
    14.10000    90.00000   180.00000     4.40003    90.00000   180.00000     4.35710
    14.20000    90.00000   180.00000     4.39999    90.00000   180.00000     4.35705
    14.30000    90.00000   180.00000     4.39995    90.00000   180.00000     4.35701
    14.40000    90.00000   180.00000     4.39991    90.00000   180.00000     4.35697
    14.50000    90.00000   180.00000     4.39987    90.00000   180.00000     4.35693
    14.60000    90.00000   180.00000     4.39983    90.00000   180.00000     4.35689
    14.70000    90.00000   180.00000     4.39979    90.00000   180.00000     4.35684
    14.80000    90.00000   180.00000     4.39975    90.00000   180.00000     4.35680
    14.90000    90.00000   180.00000     4.39971    90.00000   180.00000     4.35676
    15.00000    90.00000   180.00000     4.39967    90.00000   180.00000     4.35672
    15.10000    90.00000   180.00000     4.39964    90.00000   180.00000     4.35668
    15.20000    90.00000   180.00000     4.39960    90.00000   180.00000     4.35663
    15.30000    90.00000   180.00000     4.39956    90.00000   180.00000     4.35659
    15.40000    90.00000   180.00000     4.39952    90.00000   180.00000     4.35655
    15.50000    90.00000   180.00000     4.39948    90.00000   180.00000     4.35651
    15.60000    90.00000   180.00000     4.39944    90.00000   180.00000     4.35647
    15.70000    90.00000   180.00000     4.39940    90.00000   180.00000     4.35642
    15.80000    90.00000   180.00000     4.39936    90.00000   180.00000     4.35638
    15.90000    90.00000   180.00000     4.39932    90.00000   180.00000     4.35634
    16.00000    90.00000   180.00000     4.39928    90.00000   180.00000     4.35630
    16.10000    90.00000   180.00000     4.39924    90.00000   180.00000     4.35625
    16.20000    90.00000   180.00000     4.39921    90.00000   180.00000     4.35621
    16.30000    90.00000   180.00000     4.39917    90.00000   180.00000     4.35617
    16.40000    90.00000   180.00000     4.39913    90.00000   180.00000     4.35613
    16.50000    90.00000   180.00000     4.39909    90.00000   180.00000     4.35609
    16.60000    90.00000   180.00000     4.39905    90.00000   180.00000     4.35604
    16.70000    90.00000   180.00000     4.39901    90.00000   180.00000     4.35600
    16.80000    90.00000   180.00000     4.39897    90.00000   180.00000     4.35596
    16.90000    90.00000   180.00000     4.39893    90.00000   180.00000     4.35592
    17.00000    90.00000   180.00000     4.39889    90.00000   180.00000     4.35588
    17.10000    90.00000   180.00000     4.39885    90.00000   180.00000     4.35583
    17.20000    90.00000   180.00000     4.39881    90.00000   180.00000     4.35579
    17.30000    90.00000   180.00000     4.39878    90.00000   180.00000     4.35575
    17.40000    90.00000   180.00000     4.39874    90.00000   180.00000     4.35571
    17.50000    90.00000   180.00000     4.39870    90.00000   180.00000     4.35566
    17.60000    90.00000   180.00000     4.39866    90.00000   180.00000     4.35562
    17.70000    90.00000   180.00000     4.39862    90.00000   180.00000     4.35558
    17.80000    90.00000   180.00000     4.39858    90.00000   180.00000     4.35554
    17.90000    90.00000   180.00000     4.39854    90.00000   180.00000     4.35550
    18.00000    90.00000   180.00000     4.39850    90.00000   180.00000     4.35545
    18.10000    90.00000   180.00000     4.39846    90.00000   180.00000     4.35541
    18.20000    90.00000   180.00000     4.39842    90.00000   180.00000     4.35537
    18.30000    90.00000   180.00000     4.39838    90.00000   180.00000     4.35533
    18.40000    90.00000   180.00000     4.39834    90.00000   180.00000     4.35529
    18.50000    90.00000   180.00000     4.39830    90.00000   180.00000     4.35524
    18.60000    90.00000   180.00000     4.39827    90.00000   180.00000     4.35520
    18.70000    90.00000   180.00000     4.39823    90.00000   180.00000     4.35516
    18.80000    90.00000   180.00000     4.39819    90.00000   180.00000     4.35512
    18.90000    90.00000   180.00000     4.39815    90.00000   180.00000     4.35507
    19.00000    90.00000   180.00000     4.39811    90.00000   180.00000     4.35503
    19.10000    90.00000   180.00000     4.39807    90.00000   180.00000     4.35499
    19.20000    90.00000   180.00000     4.39803    90.00000   180.00000     4.35495
    19.30000    90.00000   180.00000     4.39799    90.00000   180.00000     4.35490
    19.40000    90.00000   180.00000     4.39795    90.00000   180.00000     4.35486
    19.50000    90.00000   180.00000     4.39791    90.00000   180.00000     4.35482
    19.60000    90.00000   180.00000     4.39787    90.00000   180.00000     4.35478
    19.70000    90.00000   180.00000     4.39783    90.00000   180.00000     4.35474
    19.80000    90.00000   180.00000     4.39779    90.00000   180.00000     4.35469
    19.90000    90.00000   180.00000     4.39775    90.00000   180.00000     4.35465
    20.00000    90.00000   180.00000     4.39772    90.00000   180.00000     4.35461
    20.10000    90.00000   180.00000     4.39768    90.00000   180.00000     4.35457
    20.20000    90.00000   180.00000     4.39764    90.00000   180.00000     4.35452
    20.30000    90.00000   180.00000     4.39760    90.00000   180.00000     4.35448
    20.40000    90.00000   180.00000     4.39756    90.00000   180.00000     4.35444
    20.50000    90.00000   180.00000     4.39752    90.00000   180.00000     4.35440
    20.60000    90.00000   180.00000     4.39748    90.00000   180.00000     4.35435
    20.70000    90.00000   180.00000     4.39744    90.00000   180.00000     4.35431
    20.80000    90.00000   180.00000     4.39740    90.00000   180.00000     4.35427
    20.90000    90.00000   180.00000     4.39736    90.00000   180.00000     4.35423
    21.00000    90.00000   180.00000     4.39732    90.00000   180.00000     4.35419
    21.10000    90.00000   180.00000     4.39728    90.00000   180.00000     4.35414
    21.20000    90.00000   180.00000     4.39724    90.00000   180.00000     4.35410
    21.30000    90.00000   180.00000     4.39720    90.00000   180.00000     4.35406
    21.40000    90.00000   180.00000     4.39716    90.00000   180.00000     4.35402
    21.50000    90.00000   180.00000     4.39713    90.00000   180.00000     4.35397
    21.60000    90.00000   180.00000     4.39709    90.00000   180.00000     4.35393
    21.70000    90.00000   180.00000     4.39705    90.00000   180.00000     4.35389
    21.80000    90.00000   180.00000     4.39701    90.00000   180.00000     4.35385
    21.90000    90.00000   180.00000     4.39697    90.00000   180.00000     4.35380
    22.00000    90.00000   180.00000     4.39693    90.00000   180.00000     4.35376
    22.10000    90.00000   180.00000     4.39689    90.00000   180.00000     4.35372
    22.20000    90.00000   180.00000     4.39685    90.00000   180.00000     4.35368
    22.30000    90.00000   180.00000     4.39681    90.00000   180.00000     4.35363
    22.40000    90.00000   180.00000     4.39677    90.00000   180.00000     4.35359
    22.50000    90.00000   180.00000     4.39673    90.00000   180.00000     4.35355
    22.60000    90.00000   180.00000     4.39669    90.00000   180.00000     4.35351
    22.70000    90.00000   180.00000     4.39665    90.00000   180.00000     4.35346
    22.80000    90.00000   180.00000     4.39661    90.00000   180.00000     4.35342
    22.90000    90.00000   180.00000     4.39657    90.00000   180.00000     4.35338
    23.00000    90.00000   180.00000     4.39653    90.00000   180.00000     4.35334
    23.10000    90.00000   180.00000     4.39649    90.00000   180.00000     4.35329
    23.20000    90.00000   180.00000     4.39646    90.00000   180.00000     4.35325
    23.30000    90.00000   180.00000     4.39642    90.00000   180.00000     4.35321
