 # applied field (T), theta (degree), phi (degree), abs for RE 1-2
     0.00000   180.00000   180.00000     3.70589     0.00000     0.00000     0.00000
     0.10000   179.32828   180.00000     3.70586     0.00000     0.00000     0.00000
     0.20000   178.65652   180.00000     3.70577     0.00000     0.00000     0.00000
     0.30000   177.98465   180.00000     3.70561     0.00000     0.00000     0.00000
     0.40000   177.31262   180.00000     3.70539     0.00000     0.00000     0.00000
     0.50000   176.69217   180.00000     3.70513     0.00000     0.00000     0.00000
     0.60000   176.01970   180.00000     3.70478     0.00000     0.00000     0.00000
     0.70000   175.34693   180.00000     3.70438     0.00000     0.00000     0.00000
     0.80000   174.67381   180.00000     3.70391     0.00000     0.00000     0.00000
     0.90000   174.00028   180.00000     3.70338     0.00000     0.00000     0.00000
     1.00000   173.32630   180.00000     3.70279     0.00000     0.00000     0.00000
     1.10000   172.65182   180.00000     3.70213     0.00000     0.00000     0.00000
     1.20000   171.97678   180.00000     3.70142     0.00000     0.00000     0.00000
     1.30000   171.24908   180.00000     3.70058     0.00000     0.00000     0.00000
     1.40000   170.57274   180.00000     3.69974     0.00000     0.00000     0.00000
     1.50000   169.89569   180.00000     3.69885     0.00000     0.00000     0.00000
     1.60000   169.21789   180.00000     3.69789     0.00000     0.00000     0.00000
     1.70000   168.48700   180.00000     3.69680     0.00000     0.00000     0.00000
     1.80000   167.80749   180.00000     3.69572     0.00000     0.00000     0.00000
     1.90000   167.12709   180.00000     3.69459     0.00000     0.00000     0.00000
     2.00000   166.39325   180.00000     3.69331     0.00000     0.00000     0.00000
     2.10000   165.71085   180.00000     3.69206     0.00000     0.00000     0.00000
     2.20000   164.97475   180.00000     3.69066     0.00000     0.00000     0.00000
     2.30000   164.23740   180.00000     3.68920     0.00000     0.00000     0.00000
     2.40000   163.55161   180.00000     3.68779     0.00000     0.00000     0.00000
     2.50000   162.81171   180.00000     3.68621     0.00000     0.00000     0.00000
     2.60000   162.07042   180.00000     3.68458     0.00000     0.00000     0.00000
     2.70000   161.32767   180.00000     3.68289     0.00000     0.00000     0.00000
     2.80000   160.53017   180.00000     3.68102     0.00000     0.00000     0.00000
     2.90000   159.78428   180.00000     3.67922     0.00000     0.00000     0.00000
     3.00000   159.03680   180.00000     3.67737     0.00000     0.00000     0.00000
     3.10000   158.23407   180.00000     3.67533     0.00000     0.00000     0.00000
     3.20000   157.48316   180.00000     3.67338     0.00000     0.00000     0.00000
     3.30000   156.67666   180.00000     3.67124     0.00000     0.00000     0.00000
     3.40000   155.86814   180.00000     3.66904     0.00000     0.00000     0.00000
     3.50000   155.05755   180.00000     3.66680     0.00000     0.00000     0.00000
     3.60000   154.24485   180.00000     3.66450     0.00000     0.00000     0.00000
     3.70000   153.37555   180.00000     3.66201     0.00000     0.00000     0.00000
     3.80000   152.55836   180.00000     3.65963     0.00000     0.00000     0.00000
     3.90000   151.68418   180.00000     3.65704     0.00000     0.00000     0.00000
     4.00000   150.80742   180.00000     3.65442     0.00000     0.00000     0.00000
     4.10000   149.92804   180.00000     3.65175     0.00000     0.00000     0.00000
     4.20000   149.04599   180.00000     3.64904     0.00000     0.00000     0.00000
     4.30000   148.10583   180.00000     3.64613     0.00000     0.00000     0.00000
     4.40000   147.16259   180.00000     3.64319     0.00000     0.00000     0.00000
     4.50000   146.21623   180.00000     3.64021     0.00000     0.00000     0.00000
     4.60000   145.26674   180.00000     3.63720     0.00000     0.00000     0.00000
     4.70000   144.25790   180.00000     3.63399     0.00000     0.00000     0.00000
     4.80000   143.24550   180.00000     3.63076     0.00000     0.00000     0.00000
     4.90000   142.22949   180.00000     3.62751     0.00000     0.00000     0.00000
     5.00000   141.15310   180.00000     3.62406     0.00000     0.00000     0.00000
     5.10000   140.07267   180.00000     3.62061     0.00000     0.00000     0.00000
     5.20000   138.98820   180.00000     3.61714     0.00000     0.00000     0.00000
     5.30000   137.84226   180.00000     3.61350     0.00000     0.00000     0.00000
     5.40000   136.63420   180.00000     3.60968     0.00000     0.00000     0.00000
     5.50000   135.42122   180.00000     3.60587     0.00000     0.00000     0.00000
     5.60000   134.14523   180.00000     3.60191     0.00000     0.00000     0.00000
     5.70000   132.86393   180.00000     3.59797     0.00000     0.00000     0.00000
     5.80000   131.51873   180.00000     3.59389     0.00000     0.00000     0.00000
     5.90000   130.10898   180.00000     3.58969     0.00000     0.00000     0.00000
     6.00000   128.63399   180.00000     3.58538     0.00000     0.00000     0.00000
     6.10000   127.09311   180.00000     3.58098     0.00000     0.00000     0.00000
     6.20000   125.48569   180.00000     3.57652     0.00000     0.00000     0.00000
     6.30000   123.81111   180.00000     3.57201     0.00000     0.00000     0.00000
     6.40000   122.00857   180.00000     3.56734     0.00000     0.00000     0.00000
     6.50000   120.07670   180.00000     3.56255     0.00000     0.00000     0.00000
     6.60000   118.01421   180.00000     3.55771     0.00000     0.00000     0.00000
     6.70000   115.75878   180.00000     3.55273     0.00000     0.00000     0.00000
     6.80000   113.24708   180.00000     3.54762     0.00000     0.00000     0.00000
     6.90000   110.41485   180.00000     3.54243     0.00000     0.00000     0.00000
     7.00000   107.07301   180.00000     3.53710     0.00000     0.00000     0.00000
     7.10000   102.90512   180.00000     3.53172     0.00000     0.00000     0.00000
     7.20000    96.27560   180.00000     3.52619     0.00000     0.00000     0.00000
     7.30000    90.00000   180.00000     3.52446     0.00000     0.00000     0.00000
     7.40000    90.00000   180.00000     3.52445     0.00000     0.00000     0.00000
     7.50000    90.00000   180.00000     3.52444     0.00000     0.00000     0.00000
     7.60000    90.00000   180.00000     3.52443     0.00000     0.00000     0.00000
     7.70000    90.00000   180.00000     3.52443     0.00000     0.00000     0.00000
     7.80000    90.00000   180.00000     3.52442     0.00000     0.00000     0.00000
     7.90000    90.00000   180.00000     3.52441     0.00000     0.00000     0.00000
     8.00000    90.00000   180.00000     3.52440     0.00000     0.00000     0.00000
     8.10000    90.00000   180.00000     3.52439     0.00000     0.00000     0.00000
     8.20000    90.00000   180.00000     3.52438     0.00000     0.00000     0.00000
     8.30000    90.00000   180.00000     3.52437     0.00000     0.00000     0.00000
     8.40000    90.00000   180.00000     3.52436     0.00000     0.00000     0.00000
     8.50000    90.00000   180.00000     3.52436     0.00000     0.00000     0.00000
     8.60000    90.00000   180.00000     3.52435     0.00000     0.00000     0.00000
     8.70000    90.00000   180.00000     3.52434     0.00000     0.00000     0.00000
     8.80000    90.00000   180.00000     3.52433     0.00000     0.00000     0.00000
     8.90000    90.00000   180.00000     3.52432     0.00000     0.00000     0.00000
     9.00000    90.00000   180.00000     3.52431     0.00000     0.00000     0.00000
     9.10000    90.00000   180.00000     3.52430     0.00000     0.00000     0.00000
     9.20000    90.00000   180.00000     3.52429     0.00000     0.00000     0.00000
     9.30000    90.00000   180.00000     3.52428     0.00000     0.00000     0.00000
     9.40000    90.00000   180.00000     3.52428     0.00000     0.00000     0.00000
     9.50000    90.00000   180.00000     3.52427     0.00000     0.00000     0.00000
     9.60000    90.00000   180.00000     3.52426     0.00000     0.00000     0.00000
     9.70000    90.00000   180.00000     3.52425     0.00000     0.00000     0.00000
     9.80000    90.00000   180.00000     3.52424     0.00000     0.00000     0.00000
     9.90000    90.00000   180.00000     3.52423     0.00000     0.00000     0.00000
    10.00000    90.00000   180.00000     3.52422     0.00000     0.00000     0.00000
    10.10000    90.00000   180.00000     3.52421     0.00000     0.00000     0.00000
    10.20000    90.00000   180.00000     3.52420     0.00000     0.00000     0.00000
    10.30000    90.00000   180.00000     3.52419     0.00000     0.00000     0.00000
    10.40000    90.00000   180.00000     3.52418     0.00000     0.00000     0.00000
    10.50000    90.00000   180.00000     3.52418     0.00000     0.00000     0.00000
    10.60000    90.00000   180.00000     3.52417     0.00000     0.00000     0.00000
    10.70000    90.00000   180.00000     3.52416     0.00000     0.00000     0.00000
    10.80000    90.00000   180.00000     3.52415     0.00000     0.00000     0.00000
    10.90000    90.00000   180.00000     3.52414     0.00000     0.00000     0.00000
    11.00000    90.00000   180.00000     3.52413     0.00000     0.00000     0.00000
    11.10000    90.00000   180.00000     3.52412     0.00000     0.00000     0.00000
    11.20000    90.00000   180.00000     3.52411     0.00000     0.00000     0.00000
    11.30000    90.00000   180.00000     3.52410     0.00000     0.00000     0.00000
    11.40000    90.00000   180.00000     3.52409     0.00000     0.00000     0.00000
    11.50000    90.00000   180.00000     3.52408     0.00000     0.00000     0.00000
    11.60000    90.00000   180.00000     3.52407     0.00000     0.00000     0.00000
    11.70000    90.00000   180.00000     3.52406     0.00000     0.00000     0.00000
    11.80000    90.00000   180.00000     3.52405     0.00000     0.00000     0.00000
    11.90000    90.00000   180.00000     3.52404     0.00000     0.00000     0.00000
    12.00000    90.00000   180.00000     3.52403     0.00000     0.00000     0.00000
    12.10000    90.00000   180.00000     3.52402     0.00000     0.00000     0.00000
    12.20000    90.00000   180.00000     3.52402     0.00000     0.00000     0.00000
    12.30000    90.00000   180.00000     3.52401     0.00000     0.00000     0.00000
    12.40000    90.00000   180.00000     3.52400     0.00000     0.00000     0.00000
    12.50000    90.00000   180.00000     3.52399     0.00000     0.00000     0.00000
    12.60000    90.00000   180.00000     3.52398     0.00000     0.00000     0.00000
    12.70000    90.00000   180.00000     3.52397     0.00000     0.00000     0.00000
    12.80000    90.00000   180.00000     3.52396     0.00000     0.00000     0.00000
    12.90000    90.00000   180.00000     3.52395     0.00000     0.00000     0.00000
    13.00000    90.00000   180.00000     3.52394     0.00000     0.00000     0.00000
    13.10000    90.00000   180.00000     3.52393     0.00000     0.00000     0.00000
    13.20000    90.00000   180.00000     3.52392     0.00000     0.00000     0.00000
    13.30000    90.00000   180.00000     3.52391     0.00000     0.00000     0.00000
    13.40000    90.00000   180.00000     3.52390     0.00000     0.00000     0.00000
    13.50000    90.00000   180.00000     3.52389     0.00000     0.00000     0.00000
    13.60000    90.00000   180.00000     3.52388     0.00000     0.00000     0.00000
    13.70000    90.00000   180.00000     3.52387     0.00000     0.00000     0.00000
    13.80000    90.00000   180.00000     3.52386     0.00000     0.00000     0.00000
    13.90000    90.00000   180.00000     3.52385     0.00000     0.00000     0.00000
    14.00000    90.00000   180.00000     3.52384     0.00000     0.00000     0.00000
    14.10000    90.00000   180.00000     3.52383     0.00000     0.00000     0.00000
    14.20000    90.00000   180.00000     3.52382     0.00000     0.00000     0.00000
    14.30000    90.00000   180.00000     3.52381     0.00000     0.00000     0.00000
    14.40000    90.00000   180.00000     3.52380     0.00000     0.00000     0.00000
    14.50000    90.00000   180.00000     3.52379     0.00000     0.00000     0.00000
    14.60000    90.00000   180.00000     3.52378     0.00000     0.00000     0.00000
    14.70000    90.00000   180.00000     3.52377     0.00000     0.00000     0.00000
    14.80000    90.00000   180.00000     3.52376     0.00000     0.00000     0.00000
    14.90000    90.00000   180.00000     3.52375     0.00000     0.00000     0.00000
    15.00000    90.00000   180.00000     3.52374     0.00000     0.00000     0.00000
    15.10000    90.00000   180.00000     3.52373     0.00000     0.00000     0.00000
    15.20000    90.00000   180.00000     3.52372     0.00000     0.00000     0.00000
    15.30000    90.00000   180.00000     3.52371     0.00000     0.00000     0.00000
    15.40000    90.00000   180.00000     3.52370     0.00000     0.00000     0.00000
    15.50000    90.00000   180.00000     3.52369     0.00000     0.00000     0.00000
    15.60000    90.00000   180.00000     3.52368     0.00000     0.00000     0.00000
    15.70000    90.00000   180.00000     3.52367     0.00000     0.00000     0.00000
    15.80000    90.00000   180.00000     3.52366     0.00000     0.00000     0.00000
    15.90000    90.00000   180.00000     3.52365     0.00000     0.00000     0.00000
    16.00000    90.00000   180.00000     3.52364     0.00000     0.00000     0.00000
    16.10000    90.00000   180.00000     3.52363     0.00000     0.00000     0.00000
    16.20000    90.00000   180.00000     3.52362     0.00000     0.00000     0.00000
    16.30000    90.00000   180.00000     3.52361     0.00000     0.00000     0.00000
    16.40000    90.00000   180.00000     3.52360     0.00000     0.00000     0.00000
    16.50000    90.00000   180.00000     3.52359     0.00000     0.00000     0.00000
    16.60000    90.00000   180.00000     3.52358     0.00000     0.00000     0.00000
    16.70000    90.00000   180.00000     3.52356     0.00000     0.00000     0.00000
    16.80000    90.00000   180.00000     3.52355     0.00000     0.00000     0.00000
    16.90000    90.00000   180.00000     3.52354     0.00000     0.00000     0.00000
    17.00000    90.00000   180.00000     3.52353     0.00000     0.00000     0.00000
    17.10000    90.00000   180.00000     3.52352     0.00000     0.00000     0.00000
    17.20000    90.00000   180.00000     3.52351     0.00000     0.00000     0.00000
    17.30000    90.00000   180.00000     3.52350     0.00000     0.00000     0.00000
    17.40000    90.00000   180.00000     3.52349     0.00000     0.00000     0.00000
    17.50000    90.00000   180.00000     3.52348     0.00000     0.00000     0.00000
    17.60000    90.00000   180.00000     3.52347     0.00000     0.00000     0.00000
    17.70000    90.00000   180.00000     3.52346     0.00000     0.00000     0.00000
    17.80000    90.00000   180.00000     3.52345     0.00000     0.00000     0.00000
    17.90000    90.00000   180.00000     3.52344     0.00000     0.00000     0.00000
    18.00000    90.00000   180.00000     3.52343     0.00000     0.00000     0.00000
    18.10000    90.00000   180.00000     3.52342     0.00000     0.00000     0.00000
    18.20000    90.00000   180.00000     3.52341     0.00000     0.00000     0.00000
    18.30000    90.00000   180.00000     3.52339     0.00000     0.00000     0.00000
    18.40000    90.00000   180.00000     3.52338     0.00000     0.00000     0.00000
    18.50000    90.00000   180.00000     3.52337     0.00000     0.00000     0.00000
    18.60000    90.00000   180.00000     3.52336     0.00000     0.00000     0.00000
    18.70000    90.00000   180.00000     3.52335     0.00000     0.00000     0.00000
    18.80000    90.00000   180.00000     3.52334     0.00000     0.00000     0.00000
    18.90000    90.00000   180.00000     3.52333     0.00000     0.00000     0.00000
    19.00000    90.00000   180.00000     3.52332     0.00000     0.00000     0.00000
    19.10000    90.00000   180.00000     3.52331     0.00000     0.00000     0.00000
    19.20000    90.00000   180.00000     3.52330     0.00000     0.00000     0.00000
    19.30000    90.00000   180.00000     3.52329     0.00000     0.00000     0.00000
    19.40000    90.00000   180.00000     3.52328     0.00000     0.00000     0.00000
    19.50000    90.00000   180.00000     3.52326     0.00000     0.00000     0.00000
    19.60000    90.00000   180.00000     3.52325     0.00000     0.00000     0.00000
    19.70000    90.00000   180.00000     3.52324     0.00000     0.00000     0.00000
    19.80000    90.00000   180.00000     3.52323     0.00000     0.00000     0.00000
    19.90000    90.00000   180.00000     3.52322     0.00000     0.00000     0.00000
    20.00000    90.00000   180.00000     3.52321     0.00000     0.00000     0.00000
    20.10000    90.00000   180.00000     3.52320     0.00000     0.00000     0.00000
    20.20000    90.00000   180.00000     3.52319     0.00000     0.00000     0.00000
    20.30000    90.00000   180.00000     3.52318     0.00000     0.00000     0.00000
    20.40000    90.00000   180.00000     3.52316     0.00000     0.00000     0.00000
    20.50000    90.00000   180.00000     3.52315     0.00000     0.00000     0.00000
    20.60000    90.00000   180.00000     3.52314     0.00000     0.00000     0.00000
    20.70000    90.00000   180.00000     3.52313     0.00000     0.00000     0.00000
    20.80000    90.00000   180.00000     3.52312     0.00000     0.00000     0.00000
    20.90000    90.00000   180.00000     3.52311     0.00000     0.00000     0.00000
    21.00000    90.00000   180.00000     3.52310     0.00000     0.00000     0.00000
    21.10000    90.00000   180.00000     3.52309     0.00000     0.00000     0.00000
    21.20000    90.00000   180.00000     3.52307     0.00000     0.00000     0.00000
    21.30000    90.00000   180.00000     3.52306     0.00000     0.00000     0.00000
    21.40000    90.00000   180.00000     3.52305     0.00000     0.00000     0.00000
    21.50000    90.00000   180.00000     3.52304     0.00000     0.00000     0.00000
    21.60000    90.00000   180.00000     3.52303     0.00000     0.00000     0.00000
    21.70000    90.00000   180.00000     3.52302     0.00000     0.00000     0.00000
    21.80000    90.00000   180.00000     3.52301     0.00000     0.00000     0.00000
    21.90000    90.00000   180.00000     3.52299     0.00000     0.00000     0.00000
    22.00000    90.00000   180.00000     3.52298     0.00000     0.00000     0.00000
    22.10000    90.00000   180.00000     3.52297     0.00000     0.00000     0.00000
    22.20000    90.00000   180.00000     3.52296     0.00000     0.00000     0.00000
    22.30000    90.00000   180.00000     3.52295     0.00000     0.00000     0.00000
    22.40000    90.00000   180.00000     3.52294     0.00000     0.00000     0.00000
    22.50000    90.00000   180.00000     3.52293     0.00000     0.00000     0.00000
    22.60000    90.00000   180.00000     3.52291     0.00000     0.00000     0.00000
    22.70000    90.00000   180.00000     3.52290     0.00000     0.00000     0.00000
    22.80000    90.00000   180.00000     3.52289     0.00000     0.00000     0.00000
    22.90000    90.00000   180.00000     3.52288     0.00000     0.00000     0.00000
    23.00000    90.00000   180.00000     3.52287     0.00000     0.00000     0.00000
    23.10000    90.00000   180.00000     3.52286     0.00000     0.00000     0.00000
    23.20000    90.00000   180.00000     3.52284     0.00000     0.00000     0.00000
    23.30000    90.00000   180.00000     3.52283     0.00000     0.00000     0.00000
