 # applied field (T), theta (degree), phi (degree), abs for RE 1-2
     0.00000     0.00000     0.00000     0.28756     0.00000     0.00000     0.28756
     0.10000     0.21725   360.00000     0.28756     0.00565   180.00000     0.28757
     0.20000     0.43456   360.00000     0.28757     0.01126   180.00000     0.28758
     0.30000     0.65197   360.00000     0.28757     0.01677   180.00000     0.28759
     0.40000     0.90179   360.00000     0.28758     0.03407   180.00000     0.28763
     0.50000     1.11963   360.00000     0.28760     0.03923   180.00000     0.28766
     0.60000     1.33774   360.00000     0.28761     0.04416   180.00000     0.28770
     0.70000     1.55618   360.00000     0.28763     0.04881   180.00000     0.28775
     0.80000     1.77501   360.00000     0.28765     0.05315   180.00000     0.28780
     0.90000     1.99427   360.00000     0.28767     0.05711   180.00000     0.28787
     1.00000     2.24676   360.00000     0.28770     0.07217   180.00000     0.28795
     1.10000     2.46717   360.00000     0.28772     0.07517   180.00000     0.28803
     1.20000     2.68818   360.00000     0.28775     0.07767   180.00000     0.28811
     1.30000     2.90986   360.00000     0.28778     0.07962   180.00000     0.28821
     1.40000     3.13224   360.00000     0.28782     0.08098   180.00000     0.28830
     1.50000     3.38884   360.00000     0.28786     0.09257   180.00000     0.28844
     1.60000     3.61297   360.00000     0.28790     0.09247   180.00000     0.28855
     1.70000     3.83797   360.00000     0.28794     0.09163   180.00000     0.28867
     1.80000     4.06390   360.00000     0.28799     0.09002   180.00000     0.28880
     1.90000     4.29081   360.00000     0.28803     0.08759   180.00000     0.28893
     2.00000     4.55321   360.00000     0.28809     0.09431   180.00000     0.28911
     2.10000     4.78244   360.00000     0.28814     0.08993   180.00000     0.28925
     2.20000     5.01282   360.00000     0.28820     0.08460   180.00000     0.28941
     2.30000     5.27961   360.00000     0.28826     0.08763   180.00000     0.28961
     2.40000     5.51266   360.00000     0.28832     0.08006   180.00000     0.28978
     2.50000     5.74701   360.00000     0.28838     0.07140   180.00000     0.28996
     2.60000     6.01879   360.00000     0.28845     0.07023   180.00000     0.29018
     2.70000     6.25617   360.00000     0.28852     0.05904   180.00000     0.29037
     2.80000     6.49499   360.00000     0.28858     0.04664   180.00000     0.29057
     2.90000     6.77236   360.00000     0.28867     0.04078   180.00000     0.29082
     3.00000     7.01454   360.00000     0.28874     0.02557   180.00000     0.29103
     3.10000     7.29608   360.00000     0.28883     0.01619   180.00000     0.29129
     3.20000     7.54184   360.00000     0.28890     0.00202   360.00000     0.29152
     3.30000     7.78929   360.00000     0.28898     0.02165   360.00000     0.29174
     3.40000     8.07738   360.00000     0.28907     0.03653   360.00000     0.29203
     3.50000     8.36806   360.00000     0.28917     0.05360   360.00000     0.29233
     3.60000     8.62162   360.00000     0.28925     0.07836   360.00000     0.29258
     3.70000     8.91726   360.00000     0.28935     0.09960   360.00000     0.29289
     3.80000     9.17503   360.00000     0.28944     0.12789   360.00000     0.29315
     3.90000     9.47586   360.00000     0.28954     0.15352   360.00000     0.29347
     4.00000     9.77962   360.00000     0.28965     0.18163   360.00000     0.29381
     4.10000    10.04430   360.00000     0.28974     0.21573   360.00000     0.29408
     4.20000    10.35361   360.00000     0.28985     0.24854   360.00000     0.29443
     4.30000    10.66605   360.00000     0.28996     0.28400   360.00000     0.29479
     4.40000    10.98168   360.00000     0.29008     0.32216   360.00000     0.29515
     4.50000    11.25640   360.00000     0.29017     0.36474   360.00000     0.29545
     4.60000    11.57803   360.00000     0.29029     0.40801   360.00000     0.29582
     4.70000    11.90302   360.00000     0.29041     0.45413   360.00000     0.29620
     4.80000    12.23144   360.00000     0.29053     0.50318   360.00000     0.29658
     4.90000    12.56332   360.00000     0.29065     0.55520   360.00000     0.29698
     5.00000    12.89874   360.00000     0.29078     0.61024   360.00000     0.29737
     5.10000    13.23773   360.00000     0.29090     0.66836   360.00000     0.29778
     5.20000    13.62868   360.00000     0.29105     0.73159   360.00000     0.29826
     5.30000    13.97562   360.00000     0.29118     0.79656   360.00000     0.29868
     5.40000    14.32628   360.00000     0.29130     0.86477   360.00000     0.29910
     5.50000    14.68071   360.00000     0.29143     0.93625   360.00000     0.29952
     5.60000    15.08996   360.00000     0.29159     1.01539   360.00000     0.30003
     5.70000    15.45271   360.00000     0.29172     1.09415   360.00000     0.30047
     5.80000    15.87180   360.00000     0.29187     1.18195   360.00000     0.30099
     5.90000    16.29627   360.00000     0.29203     1.27452   360.00000     0.30152
     6.00000    16.67215   360.00000     0.29216     1.36488   360.00000     0.30196
     6.10000    17.10672   360.00000     0.29232     1.46646   360.00000     0.30250
     6.20000    17.54680   360.00000     0.29248     1.57301   360.00000     0.30304
     6.30000    17.99242   360.00000     0.29264     1.68457   360.00000     0.30359
     6.40000    18.44361   360.00000     0.29280     1.80121   360.00000     0.30413
     6.50000    18.90038   360.00000     0.29296     1.92298   360.00000     0.30469
     6.60000    19.36277   360.00000     0.29312     2.04995   360.00000     0.30524
     6.70000    19.89048   360.00000     0.29330     2.19448   360.00000     0.30589
     6.80000    20.36493   360.00000     0.29346     2.33278   360.00000     0.30645
     6.90000    20.90648   360.00000     0.29364     2.49045   360.00000     0.30710
     7.00000    21.45542   360.00000     0.29383     2.65524   360.00000     0.30775
     7.10000    22.01171   360.00000     0.29401     2.82724   360.00000     0.30841
     7.20000    22.57533   360.00000     0.29420     3.00650   360.00000     0.30907
     7.30000    23.21159   360.00000     0.29440     3.21094   360.00000     0.30981
     7.40000    23.79067   360.00000     0.29458     3.40588   360.00000     0.31047
     7.50000    24.44420   360.00000     0.29479     3.62817   360.00000     0.31122
     7.60000    25.10675   360.00000     0.29500     3.86005   360.00000     0.31196
     7.70000    25.77819   360.00000     0.29520     4.10159   360.00000     0.31270
     7.80000    26.52879   360.00000     0.29543     4.37616   360.00000     0.31353
     7.90000    27.29002   360.00000     0.29565     4.66291   360.00000     0.31436
     8.00000    28.06163   360.00000     0.29587     4.96191   360.00000     0.31518
     8.10000    28.91701   360.00000     0.29612     5.30044   360.00000     0.31608
     8.20000    29.85914   360.00000     0.29638     5.68277   360.00000     0.31705
     8.30000    30.81488   360.00000     0.29665     6.08323   360.00000     0.31802
     8.40000    31.78359   360.00000     0.29691     6.50192   360.00000     0.31897
     8.50000    32.92109   360.00000     0.29721     7.00604   360.00000     0.32007
     8.60000    90.00000   360.00000     0.29288    90.00000   360.00000     0.32599
     8.70000    90.00000   360.00000     0.29290    90.00000   360.00000     0.32601
     8.80000    90.00000   360.00000     0.29292    90.00000   360.00000     0.32603
     8.90000    90.00000   360.00000     0.29293    90.00000   360.00000     0.32605
     9.00000    90.00000   360.00000     0.29295    90.00000   360.00000     0.32608
     9.10000    90.00000   360.00000     0.29297    90.00000   360.00000     0.32610
     9.20000    90.00000   360.00000     0.29299    90.00000   360.00000     0.32612
     9.30000    90.00000   360.00000     0.29301    90.00000   360.00000     0.32614
     9.40000    90.00000   360.00000     0.29303    90.00000   360.00000     0.32617
     9.50000    90.00000   360.00000     0.29305    90.00000   360.00000     0.32619
     9.60000    90.00000   360.00000     0.29307    90.00000   360.00000     0.32621
     9.70000    90.00000   360.00000     0.29309    90.00000   360.00000     0.32624
     9.80000    90.00000   360.00000     0.29310    90.00000   360.00000     0.32626
     9.90000    90.00000   360.00000     0.29312    90.00000   360.00000     0.32628
    10.00000    90.00000   360.00000     0.29314    90.00000   360.00000     0.32630
    10.10000    90.00000   360.00000     0.29316    90.00000   360.00000     0.32633
    10.20000    90.00000   360.00000     0.29318    90.00000   360.00000     0.32635
    10.30000    90.00000   360.00000     0.29320    90.00000   360.00000     0.32637
    10.40000    90.00000   360.00000     0.29322    90.00000   360.00000     0.32639
    10.50000    90.00000   360.00000     0.29324    90.00000   360.00000     0.32642
    10.60000    90.00000   360.00000     0.29326    90.00000   360.00000     0.32644
    10.70000    90.00000   360.00000     0.29328    90.00000   360.00000     0.32646
    10.80000    90.00000   360.00000     0.29329    90.00000   360.00000     0.32649
    10.90000    90.00000   360.00000     0.29331    90.00000   360.00000     0.32651
    11.00000    90.00000   360.00000     0.29333    90.00000   360.00000     0.32653
    11.10000    90.00000   360.00000     0.29335    90.00000   360.00000     0.32655
    11.20000    90.00000   360.00000     0.29337    90.00000   360.00000     0.32658
    11.30000    90.00000   360.00000     0.29339    90.00000   360.00000     0.32660
    11.40000    90.00000   360.00000     0.29341    90.00000   360.00000     0.32662
    11.50000    90.00000   360.00000     0.29343    90.00000   360.00000     0.32664
    11.60000    90.00000   360.00000     0.29345    90.00000   360.00000     0.32667
    11.70000    90.00000   360.00000     0.29347    90.00000   360.00000     0.32669
    11.80000    90.00000   360.00000     0.29348    90.00000   360.00000     0.32671
    11.90000    90.00000   360.00000     0.29350    90.00000   360.00000     0.32674
    12.00000    90.00000   360.00000     0.29352    90.00000   360.00000     0.32676
    12.10000    90.00000   360.00000     0.29354    90.00000   360.00000     0.32678
    12.20000    90.00000   360.00000     0.29356    90.00000   360.00000     0.32680
    12.30000    90.00000   360.00000     0.29358    90.00000   360.00000     0.32683
    12.40000    90.00000   360.00000     0.29360    90.00000   360.00000     0.32685
    12.50000    90.00000   360.00000     0.29362    90.00000   360.00000     0.32687
    12.60000    90.00000   360.00000     0.29364    90.00000   360.00000     0.32690
    12.70000    90.00000   360.00000     0.29366    90.00000   360.00000     0.32692
    12.80000    90.00000   360.00000     0.29367    90.00000   360.00000     0.32694
    12.90000    90.00000   360.00000     0.29369    90.00000   360.00000     0.32696
    13.00000    90.00000   360.00000     0.29371    90.00000   360.00000     0.32699
    13.10000    90.00000   360.00000     0.29373    90.00000   360.00000     0.32701
    13.20000    90.00000   360.00000     0.29375    90.00000   360.00000     0.32703
    13.30000    90.00000   360.00000     0.29377    90.00000   360.00000     0.32706
    13.40000    90.00000   360.00000     0.29379    90.00000   360.00000     0.32708
    13.50000    90.00000   360.00000     0.29381    90.00000   360.00000     0.32710
    13.60000    90.00000   360.00000     0.29383    90.00000   360.00000     0.32712
    13.70000    90.00000   360.00000     0.29385    90.00000   360.00000     0.32715
    13.80000    90.00000   360.00000     0.29386    90.00000   360.00000     0.32717
    13.90000    90.00000   360.00000     0.29388    90.00000   360.00000     0.32719
    14.00000    90.00000   360.00000     0.29390    90.00000   360.00000     0.32722
    14.10000    90.00000   360.00000     0.29392    90.00000   360.00000     0.32724
    14.20000    90.00000   360.00000     0.29394    90.00000   360.00000     0.32726
    14.30000    90.00000   360.00000     0.29396    90.00000   360.00000     0.32728
    14.40000    90.00000   360.00000     0.29398    90.00000   360.00000     0.32731
    14.50000    90.00000   360.00000     0.29400    90.00000   360.00000     0.32733
    14.60000    90.00000   360.00000     0.29402    90.00000   360.00000     0.32735
    14.70000    90.00000   360.00000     0.29404    90.00000   360.00000     0.32738
    14.80000    90.00000   360.00000     0.29405    90.00000   360.00000     0.32740
    14.90000    90.00000   360.00000     0.29407    90.00000   360.00000     0.32742
    15.00000    90.00000   360.00000     0.29409    90.00000   360.00000     0.32744
    15.10000    90.00000   360.00000     0.29411    90.00000   360.00000     0.32747
    15.20000    90.00000   360.00000     0.29413    90.00000   360.00000     0.32749
    15.30000    90.00000   360.00000     0.29415    90.00000   360.00000     0.32751
    15.40000    90.00000   360.00000     0.29417    90.00000   360.00000     0.32754
    15.50000    90.00000   360.00000     0.29419    90.00000   360.00000     0.32756
    15.60000    90.00000   360.00000     0.29421    90.00000   360.00000     0.32758
    15.70000    90.00000   360.00000     0.29423    90.00000   360.00000     0.32760
    15.80000    90.00000   360.00000     0.29425    90.00000   360.00000     0.32763
    15.90000    90.00000   360.00000     0.29426    90.00000   360.00000     0.32765
    16.00000    90.00000   360.00000     0.29428    90.00000   360.00000     0.32767
    16.10000    90.00000   360.00000     0.29430    90.00000   360.00000     0.32770
    16.20000    90.00000   360.00000     0.29432    90.00000   360.00000     0.32772
    16.30000    90.00000   360.00000     0.29434    90.00000   360.00000     0.32774
    16.40000    90.00000   360.00000     0.29436    90.00000   360.00000     0.32776
    16.50000    90.00000   360.00000     0.29438    90.00000   360.00000     0.32779
    16.60000    90.00000   360.00000     0.29440    90.00000   360.00000     0.32781
    16.70000    90.00000   360.00000     0.29442    90.00000   360.00000     0.32783
    16.80000    90.00000   360.00000     0.29444    90.00000   360.00000     0.32786
    16.90000    90.00000   360.00000     0.29446    90.00000   360.00000     0.32788
    17.00000    90.00000   360.00000     0.29447    90.00000   360.00000     0.32790
    17.10000    90.00000   360.00000     0.29449    90.00000   360.00000     0.32792
    17.20000    90.00000   360.00000     0.29451    90.00000   360.00000     0.32795
    17.30000    90.00000   360.00000     0.29453    90.00000   360.00000     0.32797
    17.40000    90.00000   360.00000     0.29455    90.00000   360.00000     0.32799
    17.50000    90.00000   360.00000     0.29457    90.00000   360.00000     0.32802
    17.60000    90.00000   360.00000     0.29459    90.00000   360.00000     0.32804
    17.70000    90.00000   360.00000     0.29461    90.00000   360.00000     0.32806
    17.80000    90.00000   360.00000     0.29463    90.00000   360.00000     0.32809
    17.90000    90.00000   360.00000     0.29465    90.00000   360.00000     0.32811
    18.00000    90.00000   360.00000     0.29467    90.00000   360.00000     0.32813
    18.10000    90.00000   360.00000     0.29468    90.00000   360.00000     0.32815
    18.20000    90.00000   360.00000     0.29470    90.00000   360.00000     0.32818
    18.30000    90.00000   360.00000     0.29472    90.00000   360.00000     0.32820
    18.40000    90.00000   360.00000     0.29474    90.00000   360.00000     0.32822
    18.50000    90.00000   360.00000     0.29476    90.00000   360.00000     0.32825
    18.60000    90.00000   360.00000     0.29478    90.00000   360.00000     0.32827
    18.70000    90.00000   360.00000     0.29480    90.00000   360.00000     0.32829
    18.80000    90.00000   360.00000     0.29482    90.00000   360.00000     0.32832
    18.90000    90.00000   360.00000     0.29484    90.00000   360.00000     0.32834
    19.00000    90.00000   360.00000     0.29486    90.00000   360.00000     0.32836
    19.10000    90.00000   360.00000     0.29488    90.00000   360.00000     0.32838
    19.20000    90.00000   360.00000     0.29490    90.00000   360.00000     0.32841
    19.30000    90.00000   360.00000     0.29491    90.00000   360.00000     0.32843
    19.40000    90.00000   360.00000     0.29493    90.00000   360.00000     0.32845
    19.50000    90.00000   360.00000     0.29495    90.00000   360.00000     0.32848
    19.60000    90.00000   360.00000     0.29497    90.00000   360.00000     0.32850
    19.70000    90.00000   360.00000     0.29499    90.00000   360.00000     0.32852
    19.80000    90.00000   360.00000     0.29501    90.00000   360.00000     0.32855
    19.90000    90.00000   360.00000     0.29503    90.00000   360.00000     0.32857
    20.00000    90.00000   360.00000     0.29505    90.00000   360.00000     0.32859
    20.10000    90.00000   360.00000     0.29507    90.00000   360.00000     0.32861
    20.20000    90.00000   360.00000     0.29509    90.00000   360.00000     0.32864
    20.30000    90.00000   360.00000     0.29511    90.00000   360.00000     0.32866
    20.40000    90.00000   360.00000     0.29513    90.00000   360.00000     0.32868
    20.50000    90.00000   360.00000     0.29514    90.00000   360.00000     0.32871
    20.60000    90.00000   360.00000     0.29516    90.00000   360.00000     0.32873
    20.70000    90.00000   360.00000     0.29518    90.00000   360.00000     0.32875
    20.80000    90.00000   360.00000     0.29520    90.00000   360.00000     0.32878
    20.90000    90.00000   360.00000     0.29522    90.00000   360.00000     0.32880
    21.00000    90.00000   360.00000     0.29524    90.00000   360.00000     0.32882
    21.10000    90.00000   360.00000     0.29526    90.00000   360.00000     0.32884
    21.20000    90.00000   360.00000     0.29528    90.00000   360.00000     0.32887
    21.30000    90.00000   360.00000     0.29530    90.00000   360.00000     0.32889
    21.40000    90.00000   360.00000     0.29532    90.00000   360.00000     0.32891
    21.50000    90.00000   360.00000     0.29534    90.00000   360.00000     0.32894
    21.60000    90.00000   360.00000     0.29536    90.00000   360.00000     0.32896
    21.70000    90.00000   360.00000     0.29537    90.00000   360.00000     0.32898
    21.80000    90.00000   360.00000     0.29539    90.00000   360.00000     0.32901
    21.90000    90.00000   360.00000     0.29541    90.00000   360.00000     0.32903
    22.00000    90.00000   360.00000     0.29543    90.00000   360.00000     0.32905
    22.10000    90.00000   360.00000     0.29545    90.00000   360.00000     0.32908
    22.20000    90.00000   360.00000     0.29547    90.00000   360.00000     0.32910
    22.30000    90.00000   360.00000     0.29549    90.00000   360.00000     0.32912
    22.40000    90.00000   360.00000     0.29551    90.00000   360.00000     0.32914
    22.50000    90.00000   360.00000     0.29553    90.00000   360.00000     0.32917
    22.60000    90.00000   360.00000     0.29555    90.00000   360.00000     0.32919
    22.70000    90.00000   360.00000     0.29557    90.00000   360.00000     0.32921
    22.80000    90.00000   360.00000     0.29559    90.00000   360.00000     0.32924
    22.90000    90.00000   360.00000     0.29561    90.00000   360.00000     0.32926
    23.00000    90.00000   360.00000     0.29562    90.00000   360.00000     0.32928
    23.10000    90.00000   360.00000     0.29564    90.00000   360.00000     0.32931
    23.20000    90.00000   360.00000     0.29566    90.00000   360.00000     0.32933
    23.30000    90.00000   360.00000     0.29568    90.00000   360.00000     0.32935
