 # applied field (T), theta (degree), phi (degree), abs for RE 1-2
     0.00000     0.00000     0.00000     4.68909     0.00000     0.00000     0.00000
     0.10000     0.28186   360.00000     4.68909     0.00000     0.00000     0.00000
     0.20000     0.56373   360.00000     4.68908     0.00000     0.00000     0.00000
     0.30000     0.89201   360.00000     4.68907     0.00000     0.00000     0.00000
     0.40000     1.17398   360.00000     4.68905     0.00000     0.00000     0.00000
     0.50000     1.45602   360.00000     4.68903     0.00000     0.00000     0.00000
     0.60000     1.73815   360.00000     4.68901     0.00000     0.00000     0.00000
     0.70000     2.02038   360.00000     4.68899     0.00000     0.00000     0.00000
     0.80000     2.34918   360.00000     4.68895     0.00000     0.00000     0.00000
     0.90000     2.63169   360.00000     4.68891     0.00000     0.00000     0.00000
     1.00000     2.91435   360.00000     4.68888     0.00000     0.00000     0.00000
     1.10000     3.19719   360.00000     4.68883     0.00000     0.00000     0.00000
     1.20000     3.52679   360.00000     4.68878     0.00000     0.00000     0.00000
     1.30000     3.81006   360.00000     4.68873     0.00000     0.00000     0.00000
     1.40000     4.09356   360.00000     4.68867     0.00000     0.00000     0.00000
     1.50000     4.37730   360.00000     4.68861     0.00000     0.00000     0.00000
     1.60000     4.70803   360.00000     4.68854     0.00000     0.00000     0.00000
     1.70000     4.99236   360.00000     4.68847     0.00000     0.00000     0.00000
     1.80000     5.27697   360.00000     4.68840     0.00000     0.00000     0.00000
     1.90000     5.60880   360.00000     4.68831     0.00000     0.00000     0.00000
     2.00000     5.89411   360.00000     4.68823     0.00000     0.00000     0.00000
     2.10000     6.22679   360.00000     4.68813     0.00000     0.00000     0.00000
     2.20000     6.51287   360.00000     4.68804     0.00000     0.00000     0.00000
     2.30000     6.79934   360.00000     4.68795     0.00000     0.00000     0.00000
     2.40000     7.13343   360.00000     4.68784     0.00000     0.00000     0.00000
     2.50000     7.42078   360.00000     4.68774     0.00000     0.00000     0.00000
     2.60000     7.75595   360.00000     4.68762     0.00000     0.00000     0.00000
     2.70000     8.04426   360.00000     4.68751     0.00000     0.00000     0.00000
     2.80000     8.38059   360.00000     4.68738     0.00000     0.00000     0.00000
     2.90000     8.71759   360.00000     4.68724     0.00000     0.00000     0.00000
     3.00000     9.00753   360.00000     4.68712     0.00000     0.00000     0.00000
     3.10000     9.34582   360.00000     4.68697     0.00000     0.00000     0.00000
     3.20000     9.68485   360.00000     4.68682     0.00000     0.00000     0.00000
     3.30000     9.97660   360.00000     4.68669     0.00000     0.00000     0.00000
     3.40000    10.31706   360.00000     4.68653     0.00000     0.00000     0.00000
     3.50000    10.65833   360.00000     4.68636     0.00000     0.00000     0.00000
     3.60000    11.00043   360.00000     4.68619     0.00000     0.00000     0.00000
     3.70000    11.34338   360.00000     4.68602     0.00000     0.00000     0.00000
     3.80000    11.68722   360.00000     4.68584     0.00000     0.00000     0.00000
     3.90000    12.03196   360.00000     4.68565     0.00000     0.00000     0.00000
     4.00000    12.37763   360.00000     4.68546     0.00000     0.00000     0.00000
     4.10000    12.72424   360.00000     4.68527     0.00000     0.00000     0.00000
     4.20000    13.07184   360.00000     4.68507     0.00000     0.00000     0.00000
     4.30000    13.42043   360.00000     4.68486     0.00000     0.00000     0.00000
     4.40000    13.81952   360.00000     4.68463     0.00000     0.00000     0.00000
     4.50000    14.17032   360.00000     4.68441     0.00000     0.00000     0.00000
     4.60000    14.57200   360.00000     4.68416     0.00000     0.00000     0.00000
     4.70000    14.92512   360.00000     4.68394     0.00000     0.00000     0.00000
     4.80000    15.32950   360.00000     4.68368     0.00000     0.00000     0.00000
     4.90000    15.73537   360.00000     4.68342     0.00000     0.00000     0.00000
     5.00000    16.09223   360.00000     4.68318     0.00000     0.00000     0.00000
     5.10000    16.50097   360.00000     4.68291     0.00000     0.00000     0.00000
     5.20000    16.91128   360.00000     4.68263     0.00000     0.00000     0.00000
     5.30000    17.37431   360.00000     4.68231     0.00000     0.00000     0.00000
     5.40000    17.78805   360.00000     4.68202     0.00000     0.00000     0.00000
     5.50000    18.20346   360.00000     4.68172     0.00000     0.00000     0.00000
     5.60000    18.67233   360.00000     4.68138     0.00000     0.00000     0.00000
     5.70000    19.14336   360.00000     4.68104     0.00000     0.00000     0.00000
     5.80000    19.61660   360.00000     4.68070     0.00000     0.00000     0.00000
     5.90000    20.09207   360.00000     4.68034     0.00000     0.00000     0.00000
     6.00000    20.56982   360.00000     4.67999     0.00000     0.00000     0.00000
     6.10000    21.10290   360.00000     4.67959     0.00000     0.00000     0.00000
     6.20000    21.63886   360.00000     4.67918     0.00000     0.00000     0.00000
     6.30000    22.17773   360.00000     4.67877     0.00000     0.00000     0.00000
     6.40000    22.71954   360.00000     4.67835     0.00000     0.00000     0.00000
     6.50000    23.31856   360.00000     4.67789     0.00000     0.00000     0.00000
     6.60000    23.92121   360.00000     4.67743     0.00000     0.00000     0.00000
     6.70000    24.58245   360.00000     4.67692     0.00000     0.00000     0.00000
     6.80000    25.24806   360.00000     4.67641     0.00000     0.00000     0.00000
     6.90000    25.97376   360.00000     4.67585     0.00000     0.00000     0.00000
     7.00000    90.00000   360.00000     4.66793     0.00000     0.00000     0.00000
     7.10000    90.00000   360.00000     4.66791     0.00000     0.00000     0.00000
     7.20000    90.00000   360.00000     4.66788     0.00000     0.00000     0.00000
     7.30000    90.00000   360.00000     4.66786     0.00000     0.00000     0.00000
     7.40000    90.00000   360.00000     4.66784     0.00000     0.00000     0.00000
     7.50000    90.00000   360.00000     4.66781     0.00000     0.00000     0.00000
     7.60000    90.00000   360.00000     4.66779     0.00000     0.00000     0.00000
     7.70000    90.00000   360.00000     4.66777     0.00000     0.00000     0.00000
     7.80000    90.00000   360.00000     4.66774     0.00000     0.00000     0.00000
     7.90000    90.00000   360.00000     4.66772     0.00000     0.00000     0.00000
     8.00000    90.00000   360.00000     4.66770     0.00000     0.00000     0.00000
     8.10000    90.00000   360.00000     4.66767     0.00000     0.00000     0.00000
     8.20000    90.00000   360.00000     4.66765     0.00000     0.00000     0.00000
     8.30000    90.00000   360.00000     4.66763     0.00000     0.00000     0.00000
     8.40000    90.00000   360.00000     4.66760     0.00000     0.00000     0.00000
     8.50000    90.00000   360.00000     4.66758     0.00000     0.00000     0.00000
     8.60000    90.00000   360.00000     4.66756     0.00000     0.00000     0.00000
     8.70000    90.00000   360.00000     4.66753     0.00000     0.00000     0.00000
     8.80000    90.00000   360.00000     4.66751     0.00000     0.00000     0.00000
     8.90000    90.00000   360.00000     4.66749     0.00000     0.00000     0.00000
     9.00000    90.00000   360.00000     4.66746     0.00000     0.00000     0.00000
     9.10000    90.00000   360.00000     4.66744     0.00000     0.00000     0.00000
     9.20000    90.00000   360.00000     4.66742     0.00000     0.00000     0.00000
     9.30000    90.00000   360.00000     4.66739     0.00000     0.00000     0.00000
     9.40000    90.00000   360.00000     4.66737     0.00000     0.00000     0.00000
     9.50000    90.00000   360.00000     4.66735     0.00000     0.00000     0.00000
     9.60000    90.00000   360.00000     4.66732     0.00000     0.00000     0.00000
     9.70000    90.00000   360.00000     4.66730     0.00000     0.00000     0.00000
     9.80000    90.00000   360.00000     4.66728     0.00000     0.00000     0.00000
     9.90000    90.00000   360.00000     4.66725     0.00000     0.00000     0.00000
    10.00000    90.00000   360.00000     4.66723     0.00000     0.00000     0.00000
    10.10000    90.00000   360.00000     4.66721     0.00000     0.00000     0.00000
    10.20000    90.00000   360.00000     4.66718     0.00000     0.00000     0.00000
    10.30000    90.00000   360.00000     4.66716     0.00000     0.00000     0.00000
    10.40000    90.00000   360.00000     4.66714     0.00000     0.00000     0.00000
    10.50000    90.00000   360.00000     4.66711     0.00000     0.00000     0.00000
    10.60000    90.00000   360.00000     4.66709     0.00000     0.00000     0.00000
    10.70000    90.00000   360.00000     4.66707     0.00000     0.00000     0.00000
    10.80000    90.00000   360.00000     4.66704     0.00000     0.00000     0.00000
    10.90000    90.00000   360.00000     4.66702     0.00000     0.00000     0.00000
    11.00000    90.00000   360.00000     4.66700     0.00000     0.00000     0.00000
    11.10000    90.00000   360.00000     4.66697     0.00000     0.00000     0.00000
    11.20000    90.00000   360.00000     4.66695     0.00000     0.00000     0.00000
    11.30000    90.00000   360.00000     4.66693     0.00000     0.00000     0.00000
    11.40000    90.00000   360.00000     4.66690     0.00000     0.00000     0.00000
    11.50000    90.00000   360.00000     4.66688     0.00000     0.00000     0.00000
    11.60000    90.00000   360.00000     4.66686     0.00000     0.00000     0.00000
    11.70000    90.00000   360.00000     4.66683     0.00000     0.00000     0.00000
    11.80000    90.00000   360.00000     4.66681     0.00000     0.00000     0.00000
    11.90000    90.00000   360.00000     4.66679     0.00000     0.00000     0.00000
    12.00000    90.00000   360.00000     4.66676     0.00000     0.00000     0.00000
    12.10000    90.00000   360.00000     4.66674     0.00000     0.00000     0.00000
    12.20000    90.00000   360.00000     4.66672     0.00000     0.00000     0.00000
    12.30000    90.00000   360.00000     4.66669     0.00000     0.00000     0.00000
    12.40000    90.00000   360.00000     4.66667     0.00000     0.00000     0.00000
    12.50000    90.00000   360.00000     4.66665     0.00000     0.00000     0.00000
    12.60000    90.00000   360.00000     4.66662     0.00000     0.00000     0.00000
    12.70000    90.00000   360.00000     4.66660     0.00000     0.00000     0.00000
    12.80000    90.00000   360.00000     4.66658     0.00000     0.00000     0.00000
    12.90000    90.00000   360.00000     4.66655     0.00000     0.00000     0.00000
    13.00000    90.00000   360.00000     4.66653     0.00000     0.00000     0.00000
    13.10000    90.00000   360.00000     4.66651     0.00000     0.00000     0.00000
    13.20000    90.00000   360.00000     4.66648     0.00000     0.00000     0.00000
    13.30000    90.00000   360.00000     4.66646     0.00000     0.00000     0.00000
    13.40000    90.00000   360.00000     4.66644     0.00000     0.00000     0.00000
    13.50000    90.00000   360.00000     4.66641     0.00000     0.00000     0.00000
    13.60000    90.00000   360.00000     4.66639     0.00000     0.00000     0.00000
    13.70000    90.00000   360.00000     4.66637     0.00000     0.00000     0.00000
    13.80000    90.00000   360.00000     4.66634     0.00000     0.00000     0.00000
    13.90000    90.00000   360.00000     4.66632     0.00000     0.00000     0.00000
    14.00000    90.00000   360.00000     4.66629     0.00000     0.00000     0.00000
    14.10000    90.00000   360.00000     4.66627     0.00000     0.00000     0.00000
    14.20000    90.00000   360.00000     4.66625     0.00000     0.00000     0.00000
    14.30000    90.00000   360.00000     4.66622     0.00000     0.00000     0.00000
    14.40000    90.00000   360.00000     4.66620     0.00000     0.00000     0.00000
    14.50000    90.00000   360.00000     4.66618     0.00000     0.00000     0.00000
    14.60000    90.00000   360.00000     4.66615     0.00000     0.00000     0.00000
    14.70000    90.00000   360.00000     4.66613     0.00000     0.00000     0.00000
    14.80000    90.00000   360.00000     4.66611     0.00000     0.00000     0.00000
    14.90000    90.00000   360.00000     4.66608     0.00000     0.00000     0.00000
    15.00000    90.00000   360.00000     4.66606     0.00000     0.00000     0.00000
    15.10000    90.00000   360.00000     4.66604     0.00000     0.00000     0.00000
    15.20000    90.00000   360.00000     4.66601     0.00000     0.00000     0.00000
    15.30000    90.00000   360.00000     4.66599     0.00000     0.00000     0.00000
    15.40000    90.00000   360.00000     4.66597     0.00000     0.00000     0.00000
    15.50000    90.00000   360.00000     4.66594     0.00000     0.00000     0.00000
    15.60000    90.00000   360.00000     4.66592     0.00000     0.00000     0.00000
    15.70000    90.00000   360.00000     4.66590     0.00000     0.00000     0.00000
    15.80000    90.00000   360.00000     4.66587     0.00000     0.00000     0.00000
    15.90000    90.00000   360.00000     4.66585     0.00000     0.00000     0.00000
    16.00000    90.00000   360.00000     4.66582     0.00000     0.00000     0.00000
    16.10000    90.00000   360.00000     4.66580     0.00000     0.00000     0.00000
    16.20000    90.00000   360.00000     4.66578     0.00000     0.00000     0.00000
    16.30000    90.00000   360.00000     4.66575     0.00000     0.00000     0.00000
    16.40000    90.00000   360.00000     4.66573     0.00000     0.00000     0.00000
    16.50000    90.00000   360.00000     4.66571     0.00000     0.00000     0.00000
    16.60000    90.00000   360.00000     4.66568     0.00000     0.00000     0.00000
    16.70000    90.00000   360.00000     4.66566     0.00000     0.00000     0.00000
    16.80000    90.00000   360.00000     4.66564     0.00000     0.00000     0.00000
    16.90000    90.00000   360.00000     4.66561     0.00000     0.00000     0.00000
    17.00000    90.00000   360.00000     4.66559     0.00000     0.00000     0.00000
    17.10000    90.00000   360.00000     4.66557     0.00000     0.00000     0.00000
    17.20000    90.00000   360.00000     4.66554     0.00000     0.00000     0.00000
    17.30000    90.00000   360.00000     4.66552     0.00000     0.00000     0.00000
    17.40000    90.00000   360.00000     4.66550     0.00000     0.00000     0.00000
    17.50000    90.00000   360.00000     4.66547     0.00000     0.00000     0.00000
    17.60000    90.00000   360.00000     4.66545     0.00000     0.00000     0.00000
    17.70000    90.00000   360.00000     4.66542     0.00000     0.00000     0.00000
    17.80000    90.00000   360.00000     4.66540     0.00000     0.00000     0.00000
    17.90000    90.00000   360.00000     4.66538     0.00000     0.00000     0.00000
    18.00000    90.00000   360.00000     4.66535     0.00000     0.00000     0.00000
    18.10000    90.00000   360.00000     4.66533     0.00000     0.00000     0.00000
    18.20000    90.00000   360.00000     4.66531     0.00000     0.00000     0.00000
    18.30000    90.00000   360.00000     4.66528     0.00000     0.00000     0.00000
    18.40000    90.00000   360.00000     4.66526     0.00000     0.00000     0.00000
    18.50000    90.00000   360.00000     4.66524     0.00000     0.00000     0.00000
    18.60000    90.00000   360.00000     4.66521     0.00000     0.00000     0.00000
    18.70000    90.00000   360.00000     4.66519     0.00000     0.00000     0.00000
    18.80000    90.00000   360.00000     4.66516     0.00000     0.00000     0.00000
    18.90000    90.00000   360.00000     4.66514     0.00000     0.00000     0.00000
    19.00000    90.00000   360.00000     4.66512     0.00000     0.00000     0.00000
    19.10000    90.00000   360.00000     4.66509     0.00000     0.00000     0.00000
    19.20000    90.00000   360.00000     4.66507     0.00000     0.00000     0.00000
    19.30000    90.00000   360.00000     4.66505     0.00000     0.00000     0.00000
    19.40000    90.00000   360.00000     4.66502     0.00000     0.00000     0.00000
    19.50000    90.00000   360.00000     4.66500     0.00000     0.00000     0.00000
    19.60000    90.00000   360.00000     4.66498     0.00000     0.00000     0.00000
    19.70000    90.00000   360.00000     4.66495     0.00000     0.00000     0.00000
    19.80000    90.00000   360.00000     4.66493     0.00000     0.00000     0.00000
    19.90000    90.00000   360.00000     4.66490     0.00000     0.00000     0.00000
    20.00000    90.00000   360.00000     4.66488     0.00000     0.00000     0.00000
    20.10000    90.00000   360.00000     4.66486     0.00000     0.00000     0.00000
    20.20000    90.00000   360.00000     4.66483     0.00000     0.00000     0.00000
    20.30000    90.00000   360.00000     4.66481     0.00000     0.00000     0.00000
    20.40000    90.00000   360.00000     4.66479     0.00000     0.00000     0.00000
    20.50000    90.00000   360.00000     4.66476     0.00000     0.00000     0.00000
    20.60000    90.00000   360.00000     4.66474     0.00000     0.00000     0.00000
    20.70000    90.00000   360.00000     4.66472     0.00000     0.00000     0.00000
    20.80000    90.00000   360.00000     4.66469     0.00000     0.00000     0.00000
    20.90000    90.00000   360.00000     4.66467     0.00000     0.00000     0.00000
    21.00000    90.00000   360.00000     4.66464     0.00000     0.00000     0.00000
    21.10000    90.00000   360.00000     4.66462     0.00000     0.00000     0.00000
    21.20000    90.00000   360.00000     4.66460     0.00000     0.00000     0.00000
    21.30000    90.00000   360.00000     4.66457     0.00000     0.00000     0.00000
    21.40000    90.00000   360.00000     4.66455     0.00000     0.00000     0.00000
    21.50000    90.00000   360.00000     4.66453     0.00000     0.00000     0.00000
    21.60000    90.00000   360.00000     4.66450     0.00000     0.00000     0.00000
    21.70000    90.00000   360.00000     4.66448     0.00000     0.00000     0.00000
    21.80000    90.00000   360.00000     4.66446     0.00000     0.00000     0.00000
    21.90000    90.00000   360.00000     4.66443     0.00000     0.00000     0.00000
    22.00000    90.00000   360.00000     4.66441     0.00000     0.00000     0.00000
    22.10000    90.00000   360.00000     4.66438     0.00000     0.00000     0.00000
    22.20000    90.00000   360.00000     4.66436     0.00000     0.00000     0.00000
    22.30000    90.00000   360.00000     4.66434     0.00000     0.00000     0.00000
    22.40000    90.00000   360.00000     4.66431     0.00000     0.00000     0.00000
    22.50000    90.00000   360.00000     4.66429     0.00000     0.00000     0.00000
    22.60000    90.00000   360.00000     4.66427     0.00000     0.00000     0.00000
    22.70000    90.00000   360.00000     4.66424     0.00000     0.00000     0.00000
    22.80000    90.00000   360.00000     4.66422     0.00000     0.00000     0.00000
    22.90000    90.00000   360.00000     4.66419     0.00000     0.00000     0.00000
    23.00000    90.00000   360.00000     4.66417     0.00000     0.00000     0.00000
    23.10000    90.00000   360.00000     4.66415     0.00000     0.00000     0.00000
    23.20000    90.00000   360.00000     4.66412     0.00000     0.00000     0.00000
    23.30000    90.00000   360.00000     4.66410     0.00000     0.00000     0.00000
