 # applied field (T), magnetization (2 f.u.), magnetization (T)
  0.000000000000000E+000  1.312714403226125E-015  4.418378072848804E-017
  0.100000000000000       0.209389640267000       7.047706591500267E-003
  0.200000000000000       0.418774569311382       1.409525461109291E-002
  0.300000000000000       0.628150075907797       2.114248548677834E-002
  0.400000000000000       0.879270428287196       2.959477835316563E-002
  0.500000000000000        1.08860863243775       3.664075369064381E-002
  0.600000000000000        1.29792234040586       4.368590452741457E-002
  0.700000000000000        1.50720684092420       5.073007229006579E-002
  0.800000000000000        1.71645742270469       5.777309840448645E-002
  0.900000000000000        1.92566937443311       6.481482429568587E-002
   1.00000000000000        2.17655500785102       7.325921691271051E-002
   1.10000000000000        2.38566541392249       8.029752494620236E-002
   1.20000000000000        2.59472211576533       8.733402538479328E-002
   1.30000000000000        2.80372040188681       9.436855964748356E-002
   1.40000000000000        3.01265556072562       0.101400969150966     
   1.50000000000000        3.26317685785470       0.109833098815244     
   1.60000000000000        3.47195658797416       0.116860276846871     
   1.70000000000000        3.68065811554361       0.123884822710897     
   1.80000000000000        3.88927672857747       0.130906577809733     
   1.90000000000000        4.09780771494219       0.137925383540813     
   2.00000000000000        4.34781187972887       0.146340107391634     
   2.10000000000000        4.55613354857403       0.153351867843585     
   2.20000000000000        4.76435251309372       0.160360171438976     
   2.30000000000000        5.01396251228006       0.168761628332100     
   2.40000000000000        5.22193899369469       0.175761770349985     
   2.50000000000000        5.42979769068162       0.182757947940182     
   2.60000000000000        5.67895565088878       0.191144189954055     
   2.70000000000000        5.88653869292280       0.198131089457589     
   2.80000000000000        6.09398886695264       0.205113516845371     
   2.90000000000000        6.34263690232129       0.213482595638365     
   3.00000000000000        6.54977824077866       0.220454628135086     
   3.10000000000000        6.79804214393249       0.228810777677431     
   3.20000000000000        7.00485183028428       0.235771647316583     
   3.30000000000000        7.21150318435892       0.242727187754960     
   3.40000000000000        7.45915944129014       0.251062884937374     
   3.50000000000000        7.70657295861717       0.259390411908950     
   3.60000000000000        7.91265086314999       0.266326650990724     
   3.70000000000000        8.15959810825896       0.274638484015930     
   3.80000000000000        8.36527586569520       0.281561254812805     
   3.90000000000000        8.61172943711171       0.289856471603646     
   4.00000000000000        8.85790223375045       0.298142237983045     
   4.10000000000000        9.06291667827737       0.305042682772017     
   4.20000000000000        9.30855342903481       0.313310406739738     
   4.30000000000000        9.55388628787208       0.321567902211502     
   4.40000000000000        9.79890709151946       0.329814894425245     
   4.50000000000000        10.0029372002648       0.336682208111038     
   4.60000000000000        10.2473645668724       0.344909226222284     
   4.70000000000000        10.4914567271183       0.353124961845616     
   4.80000000000000        10.7352055042054       0.361329139763665     
   4.90000000000000        10.9786027172736       0.369521484622305     
   5.00000000000000        11.2216401811644       0.377701720922728     
   5.10000000000000        11.4643097061822       0.385869573013419     
   5.20000000000000        11.7468587819685       0.395379704370934     
   5.30000000000000        11.9887031394259       0.403519782695707     
   5.40000000000000        12.2301535954859       0.411646602955414     
   5.50000000000000        12.4712019389944       0.419759888776282     
   5.60000000000000        12.7518170736386       0.429204926895577     
   5.70000000000000        12.9919661460286       0.437287944748165     
   5.80000000000000        13.2715099797132       0.446696924661212     
   5.90000000000000        13.5504583917036       0.456085863671599     
   6.00000000000000        13.7891486245283       0.464119779413849     
   6.10000000000000        14.0669563672623       0.473470325396636     
   6.20000000000000        14.3441312928469       0.482799571808017     
   6.30000000000000        14.6206602891575       0.492107077315714     
   6.40000000000000        14.8965302301512       0.501392400118975     
   6.50000000000000        15.1717279754976       0.510655097936169     
   6.60000000000000        15.4462403702476       0.519894727993611     
   6.70000000000000        15.7590387822636       0.530423001633916     
   6.80000000000000        16.0320384314443       0.539611715194693     
   6.90000000000000        16.3430738766954       0.550080650309589     
   7.00000000000000        16.6531408719475       0.560516989010292     
   7.10000000000000        16.9622196827539       0.570920067068195     
   7.20000000000000        17.2702905485834       0.581289219376719     
   7.30000000000000        17.6155776120686       0.592911006921608     
   7.40000000000000        17.9214411383251       0.603205863856025     
   7.50000000000000        18.2641951794060       0.614742394085070     
   7.60000000000000        18.6055675494011       0.626232419566288     
   7.70000000000000        18.9455299548629       0.637674987989348     
   7.80000000000000        19.3215230997176       0.650330291097813     
   7.90000000000000        19.6957023706599       0.662924542231062     
   8.00000000000000        20.0680288524739       0.675456431567728     
   8.10000000000000        20.4753532603616       0.689166292813437     
   8.20000000000000        20.9169929596915       0.704031149623288     
   8.30000000000000        21.3557811321211       0.718800028786368     
   8.40000000000000        21.7916504402132       0.733470663836682     
   8.50000000000000        22.2963082900866       0.750456606648705     
   8.60000000000000        42.2634413537003        1.42251705398676     
   8.70000000000000        42.2634829740115        1.42251845485712     
   8.80000000000000        42.2635245992359        1.42251985589285     
   8.90000000000000        42.2635662293745        1.42252125709399     
   9.00000000000000        42.2636078644282        1.42252265846056     
   9.10000000000000        42.2636495043979        1.42252405999260     
   9.20000000000000        42.2636911492845        1.42252546169013     
   9.30000000000000        42.2637327990891        1.42252686355319     
   9.40000000000000        42.2637744538125        1.42252826558181     
   9.50000000000000        42.2638161134556        1.42252966777602     
   9.60000000000000        42.2638577780193        1.42253107013586     
   9.70000000000000        42.2638994475047        1.42253247266134     
   9.80000000000000        42.2639411219126        1.42253387535251     
   9.90000000000000        42.2639828012440        1.42253527820939     
   10.0000000000000        42.2640244854997        1.42253668123202     
   10.1000000000000        42.2640661746807        1.42253808442043     
   10.2000000000000        42.2641078687880        1.42253948777465     
   10.3000000000000        42.2641495678225        1.42254089129471     
   10.4000000000000        42.2641912717850        1.42254229498064     
   10.5000000000000        42.2642329806766        1.42254369883247     
   10.6000000000000        42.2642746944981        1.42254510285023     
   10.7000000000000        42.2643164132505        1.42254650703397     
   10.8000000000000        42.2643581369348        1.42254791138369     
   10.9000000000000        42.2643998655517        1.42254931589945     
   11.0000000000000        42.2644415991024        1.42255072058126     
   11.1000000000000        42.2644833375876        1.42255212542917     
   11.2000000000000        42.2645250810084        1.42255353044320     
   11.3000000000000        42.2645668293657        1.42255493562338     
   11.4000000000000        42.2646085826603        1.42255634096974     
   11.5000000000000        42.2646503408933        1.42255774648232     
   11.6000000000000        42.2646921040655        1.42255915216115     
   11.7000000000000        42.2647338721779        1.42256055800626     
   11.8000000000000        42.2647756452314        1.42256196401767     
   11.9000000000000        42.2648174232270        1.42256337019543     
   12.0000000000000        42.2648592061655        1.42256477653956     
   12.1000000000000        42.2649009940479        1.42256618305009     
   12.2000000000000        42.2649427868752        1.42256758972706     
   12.3000000000000        42.2649845846483        1.42256899657050     
   12.4000000000000        42.2650263873680        1.42257040358043     
   12.5000000000000        42.2650681950354        1.42257181075689     
   12.6000000000000        42.2651100076513        1.42257321809991     
   12.7000000000000        42.2651518252168        1.42257462560952     
   12.8000000000000        42.2651936477326        1.42257603328576     
   12.9000000000000        42.2652354751999        1.42257744112865     
   13.0000000000000        42.2652773076194        1.42257884913823     
   13.1000000000000        42.2653191449921        1.42258025731452     
   13.2000000000000        42.2653609873190        1.42258166565756     
   13.3000000000000        42.2654028346009        1.42258307416739     
   13.4000000000000        42.2654446868389        1.42258448284402     
   13.5000000000000        42.2654865440339        1.42258589168749     
   13.6000000000000        42.2655284061867        1.42258730069785     
   13.7000000000000        42.2655702732983        1.42258870987510     
   13.8000000000000        42.2656121453697        1.42259011921929     
   13.9000000000000        42.2656540224018        1.42259152873045     
   14.0000000000000        42.2656959043954        1.42259293840861     
   14.1000000000000        42.2657377913517        1.42259434825381     
   14.2000000000000        42.2657796832713        1.42259575826606     
   14.3000000000000        42.2658215801555        1.42259716844541     
   14.4000000000000        42.2658634820049        1.42259857879188     
   14.5000000000000        42.2659053888207        1.42259998930551     
   14.6000000000000        42.2659473006036        1.42260139998633     
   14.7000000000000        42.2659892173547        1.42260281083437     
   14.8000000000000        42.2660311390749        1.42260422184965     
   14.9000000000000        42.2660730657651        1.42260563303222     
   15.0000000000000        42.2661149974262        1.42260704438211     
   15.1000000000000        42.2661569340593        1.42260845589934     
   15.2000000000000        42.2661988756651        1.42260986758395     
   15.3000000000000        42.2662408222447        1.42261127943596     
   15.4000000000000        42.2662827737990        1.42261269145541     
   15.5000000000000        42.2663247303289        1.42261410364234     
   15.6000000000000        42.2663666918353        1.42261551599677     
   15.7000000000000        42.2664086583193        1.42261692851873     
   15.8000000000000        42.2664506297817        1.42261834120826     
   15.9000000000000        42.2664926062234        1.42261975406538     
   16.0000000000000        42.2665345876454        1.42262116709014     
   16.1000000000000        42.2665765740487        1.42262258028255     
   16.2000000000000        42.2666185654341        1.42262399364265     
   16.3000000000000        42.2666605618026        1.42262540717048     
   16.4000000000000        42.2667025631552        1.42262682086606     
   16.5000000000000        42.2667445694927        1.42262823472943     
   16.6000000000000        42.2667865808162        1.42262964876062     
   16.7000000000000        42.2668285971265        1.42263106295965     
   16.8000000000000        42.2668706184245        1.42263247732656     
   16.9000000000000        42.2669126447113        1.42263389186139     
   17.0000000000000        42.2669546759878        1.42263530656416     
   17.1000000000000        42.2669967122548        1.42263672143490     
   17.2000000000000        42.2670387535134        1.42263813647366     
   17.3000000000000        42.2670807997644        1.42263955168045     
   17.4000000000000        42.2671228510088        1.42264096705530     
   17.5000000000000        42.2671649072476        1.42264238259826     
   17.6000000000000        42.2672069684816        1.42264379830936     
   17.7000000000000        42.2672490347119        1.42264521418861     
   17.8000000000000        42.2672911059392        1.42264663023606     
   17.9000000000000        42.2673331821647        1.42264804645174     
   18.0000000000000        42.2673752633892        1.42264946283568     
   18.1000000000000        42.2674173496137        1.42265087938791     
   18.2000000000000        42.2674594408390        1.42265229610846     
   18.3000000000000        42.2675015370663        1.42265371299737     
   18.4000000000000        42.2675436382962        1.42265513005465     
   18.5000000000000        42.2675857445299        1.42265654728036     
   18.6000000000000        42.2676278557682        1.42265796467451     
   18.7000000000000        42.2676699720122        1.42265938223715     
   18.8000000000000        42.2677120932626        1.42266079996829     
   18.9000000000000        42.2677542195205        1.42266221786798     
   19.0000000000000        42.2677963507868        1.42266363593624     
   19.1000000000000        42.2678384870625        1.42266505417311     
   19.2000000000000        42.2678806283484        1.42266647257862     
   19.3000000000000        42.2679227746456        1.42266789115279     
   19.4000000000000        42.2679649259549        1.42266930989567     
   19.5000000000000        42.2680070822773        1.42267072880728     
   19.6000000000000        42.2680492436138        1.42267214788765     
   19.7000000000000        42.2680914099652        1.42267356713682     
   19.8000000000000        42.2681335813326        1.42267498655482     
   19.9000000000000        42.2681757577168        1.42267640614167     
   20.0000000000000        42.2682179391188        1.42267782589742     
   20.1000000000000        42.2682601255395        1.42267924582209     
   20.2000000000000        42.2683023169800        1.42268066591571     
   20.3000000000000        42.2683445134410        1.42268208617832     
   20.4000000000000        42.2683867149236        1.42268350660994     
   20.5000000000000        42.2684289214287        1.42268492721062     
   20.6000000000000        42.2684711329572        1.42268634798037     
   20.7000000000000        42.2685133495101        1.42268776891924     
   20.8000000000000        42.2685555710884        1.42268919002725     
   20.9000000000000        42.2685977976928        1.42269061130444     
   21.0000000000000        42.2686400293245        1.42269203275083     
   21.1000000000000        42.2686822659844        1.42269345436646     
   21.2000000000000        42.2687245076733        1.42269487615137     
   21.3000000000000        42.2687667543922        1.42269629810557     
   21.4000000000000        42.2688090061421        1.42269772022911     
   21.5000000000000        42.2688512629240        1.42269914252202     
   21.6000000000000        42.2688935247386        1.42270056498432     
   21.7000000000000        42.2689357915871        1.42270198761605     
   21.8000000000000        42.2689780634703        1.42270341041724     
   21.9000000000000        42.2690203403891        1.42270483338793     
   22.0000000000000        42.2690626223446        1.42270625652813     
   22.1000000000000        42.2691049093377        1.42270767983790     
   22.2000000000000        42.2691472013692        1.42270910331725     
   22.3000000000000        42.2691894984402        1.42271052696622     
   22.4000000000000        42.2692318005516        1.42271195078485     
   22.5000000000000        42.2692741077043        1.42271337477315     
   22.6000000000000        42.2693164198993        1.42271479893117     
   22.7000000000000        42.2693587371375        1.42271622325894     
   22.8000000000000        42.2694010594198        1.42271764775648     
   22.9000000000000        42.2694433867473        1.42271907242384     
   23.0000000000000        42.2694857191208        1.42272049726103     
   23.1000000000000        42.2695280565413        1.42272192226810     
   23.2000000000000        42.2695703990097        1.42272334744507     
   23.3000000000000        42.2696127465270        1.42272477279198     
   23.4000000000000        42.2696550990942        1.42272619830886     
   23.5000000000000        42.2696974567121        1.42272762399574     
   23.6000000000000        42.2697398193817        1.42272904985266     
   23.7000000000000        42.2697821871039        1.42273047587963     
   23.8000000000000        42.2698245598798        1.42273190207670     
   23.9000000000000        42.2698669377102        1.42273332844390     
   24.0000000000000        42.2699093205960        1.42273475498126     
   24.1000000000000        42.2699517085384        1.42273618168881     
   24.2000000000000        42.2699941015381        1.42273760856658     
   24.3000000000000        42.2700364995961        1.42273903561461     
   24.4000000000000        42.2700789027133        1.42274046283292     
   24.5000000000000        42.2701213108908        1.42274189022155     
   24.6000000000000        42.2701637241295        1.42274331778053     
   24.7000000000000        42.2702061424302        1.42274474550989     
   24.8000000000000        42.2702485657940        1.42274617340967     
   24.9000000000000        42.2702909942218        1.42274760147989     
   25.0000000000000        42.2703334277145        1.42274902972059     
   25.1000000000000        42.2703758662731        1.42275045813180     
   25.2000000000000        42.2704183098986        1.42275188671355     
   25.3000000000000        42.2704607585918        1.42275331546588     
   25.4000000000000        42.2705032123538        1.42275474438881     
   25.5000000000000        42.2705456711854        1.42275617348237     
   25.6000000000000        42.2705881350876        1.42275760274660     
   25.7000000000000        42.2706306040614        1.42275903218154     
   25.8000000000000        42.2706730781077        1.42276046178720     
   25.9000000000000        42.2707155572275        1.42276189156363     
   26.0000000000000        42.2707580414216        1.42276332151086     
   26.1000000000000        42.2708005306912        1.42276475162891     
   26.2000000000000        42.2708430250370        1.42276618191783     
   26.3000000000000        42.2708855244601        1.42276761237763     
   26.4000000000000        42.2709280289613        1.42276904300836     
   26.5000000000000        42.2709705385417        1.42277047381005     
   26.6000000000000        42.2710130532022        1.42277190478272     
   26.7000000000000        42.2710555729437        1.42277333592641     
   26.8000000000000        42.2710980977673        1.42277476724115     
   26.9000000000000        42.2711406276737        1.42277619872698     
   27.0000000000000        42.2711831626640        1.42277763038392     
   27.1000000000000        42.2712257027392        1.42277906221200     
   27.2000000000000        42.2712682479001        1.42278049421127     
