 # applied field (T), theta (degree), phi (degree), abs for RE 1-2
     0.00000   180.00000   360.00000     0.08578   180.00000   180.00000     0.08578
     0.10000   178.40066   180.00000     0.08581   178.50445   180.00000     0.08581
     0.20000   176.80333   180.00000     0.08587   177.01075   180.00000     0.08587
     0.30000   175.09379   180.00000     0.08599   175.41142   180.00000     0.08598
     0.40000   173.50692   180.00000     0.08615   173.92734   180.00000     0.08612
     0.50000   171.92803   180.00000     0.08635   172.45064   180.00000     0.08630
     0.60000   170.35896   180.00000     0.08659   170.98300   180.00000     0.08652
     0.70000   168.68812   180.00000     0.08689   169.41940   180.00000     0.08680
     0.80000   167.14483   180.00000     0.08721   167.97564   180.00000     0.08710
     0.90000   165.50531   180.00000     0.08761   166.44108   180.00000     0.08746
     1.00000   163.99439   180.00000     0.08801   165.02742   180.00000     0.08783
     1.10000   162.39272   180.00000     0.08848   163.52810   180.00000     0.08826
     1.20000   160.91975   180.00000     0.08896   162.14984   180.00000     0.08870
     1.30000   159.36130   180.00000     0.08950   160.69094   180.00000     0.08920
     1.40000   157.82692   180.00000     0.09008   159.25462   180.00000     0.08973
     1.50000   156.31757   180.00000     0.09070   157.84183   180.00000     0.09030
     1.60000   154.83401   180.00000     0.09135   156.45336   180.00000     0.09089
     1.70000   153.37686   180.00000     0.09202   155.08987   180.00000     0.09151
     1.80000   151.94659   180.00000     0.09272   153.75185   180.00000     0.09215
     1.90000   150.44877   180.00000     0.09350   152.35047   180.00000     0.09287
     2.00000   149.07487   180.00000     0.09425   151.06617   180.00000     0.09355
     2.10000   147.63748   180.00000     0.09507   149.72253   180.00000     0.09431
     2.20000   146.23121   180.00000     0.09591   148.40879   180.00000     0.09508
     2.30000   144.85581   180.00000     0.09676   147.12482   180.00000     0.09587
     2.40000   143.42600   180.00000     0.09769   145.79056   180.00000     0.09672
     2.50000   142.11304   180.00000     0.09857   144.56711   180.00000     0.09753
     2.60000   140.74844   180.00000     0.09951   143.29631   180.00000     0.09840
     2.70000   139.41634   180.00000     0.10046   142.05732   180.00000     0.09928
     2.80000   138.11586   180.00000     0.10141   140.84939   180.00000     0.10016
     2.90000   136.77072   180.00000     0.10242   139.60129   180.00000     0.10109
     3.00000   135.45888   180.00000     0.10342   138.38612   180.00000     0.10203
     3.10000   134.17911   180.00000     0.10441   137.20280   180.00000     0.10296
     3.20000   132.86028   180.00000     0.10545   135.98511   180.00000     0.10393
     3.30000   131.57437   180.00000     0.10647   134.80026   180.00000     0.10490
     3.40000   130.25351   180.00000     0.10753   133.58523   180.00000     0.10590
     3.50000   128.96586   180.00000     0.10856   132.40334   180.00000     0.10688
     3.60000   127.70976   180.00000     0.10955   131.25286   180.00000     0.10785
     3.70000   126.42202   180.00000     0.11056   130.07528   180.00000     0.10884
     3.80000   125.10560   180.00000     0.11158   128.87327   180.00000     0.10985
     3.90000   123.76329   180.00000     0.11259   127.64916   180.00000     0.11088
     4.00000   122.45460   180.00000     0.11354   126.45720   180.00000     0.11187
     4.10000   121.12217   180.00000     0.11447   125.24389   180.00000     0.11286
     4.20000   119.76847   180.00000     0.11536   124.01051   180.00000     0.11385
     4.30000   118.39592   180.00000     0.11620   122.75790   180.00000     0.11483
     4.40000   116.95580   180.00000     0.11701   121.43913   180.00000     0.11583
     4.50000   115.50467   180.00000     0.11774   120.10357   180.00000     0.11679
     4.60000   114.04521   180.00000     0.11837   118.75037   180.00000     0.11772
     4.70000   112.48675   180.00000     0.11892   117.28953   180.00000     0.11867
     4.80000   110.88684   180.00000     0.11935   115.76755   180.00000     0.11958
     4.90000   109.25371   180.00000     0.11964   114.18352   180.00000     0.12044
     5.00000   107.47094   180.00000     0.11978   112.40886   180.00000     0.12130
     5.10000   105.64365   180.00000     0.11973   110.52799   180.00000     0.12209
     5.20000   103.63608   180.00000     0.11947   108.37101   180.00000     0.12285
     5.30000   101.41768   180.00000     0.11895   105.85157   180.00000     0.12355
     5.40000    98.87836   180.00000     0.11814   102.75484   180.00000     0.12418
     5.50000    95.59373   180.00000     0.11700    98.36011   180.00000     0.12473
     5.60000    90.00000   180.00000     0.11590    90.00000   180.00000     0.12503
     5.70000    90.00000   180.00000     0.11578    90.00000   180.00000     0.12491
     5.80000    90.00000   180.00000     0.11567    90.00000   180.00000     0.12478
     5.90000    90.00000   180.00000     0.11555    90.00000   180.00000     0.12466
     6.00000    90.00000   180.00000     0.11543    90.00000   180.00000     0.12454
     6.10000    90.00000   180.00000     0.11532    90.00000   180.00000     0.12442
     6.20000    90.00000   180.00000     0.11520    90.00000   180.00000     0.12430
     6.30000    90.00000   180.00000     0.11508    90.00000   180.00000     0.12418
     6.40000    90.00000   180.00000     0.11497    90.00000   180.00000     0.12406
     6.50000    90.00000   180.00000     0.11485    90.00000   180.00000     0.12394
     6.60000    90.00000   180.00000     0.11473    90.00000   180.00000     0.12382
     6.70000    90.00000   180.00000     0.11462    90.00000   180.00000     0.12370
     6.80000    90.00000   180.00000     0.11450    90.00000   180.00000     0.12358
     6.90000    90.00000   180.00000     0.11438    90.00000   180.00000     0.12346
     7.00000    90.00000   180.00000     0.11427    90.00000   180.00000     0.12334
     7.10000    90.00000   180.00000     0.11415    90.00000   180.00000     0.12322
     7.20000    90.00000   180.00000     0.11403    90.00000   180.00000     0.12310
     7.30000    90.00000   180.00000     0.11392    90.00000   180.00000     0.12298
     7.40000    90.00000   180.00000     0.11380    90.00000   180.00000     0.12286
     7.50000    90.00000   180.00000     0.11368    90.00000   180.00000     0.12273
     7.60000    90.00000   180.00000     0.11357    90.00000   180.00000     0.12261
     7.70000    90.00000   180.00000     0.11345    90.00000   180.00000     0.12249
     7.80000    90.00000   180.00000     0.11333    90.00000   180.00000     0.12237
     7.90000    90.00000   180.00000     0.11322    90.00000   180.00000     0.12225
     8.00000    90.00000   180.00000     0.11310    90.00000   180.00000     0.12213
     8.10000    90.00000   180.00000     0.11298    90.00000   180.00000     0.12201
     8.20000    90.00000   180.00000     0.11287    90.00000   180.00000     0.12189
     8.30000    90.00000   180.00000     0.11275    90.00000   180.00000     0.12177
     8.40000    90.00000   180.00000     0.11263    90.00000   180.00000     0.12165
     8.50000    90.00000   180.00000     0.11252    90.00000   180.00000     0.12153
     8.60000    90.00000   180.00000     0.11240    90.00000   180.00000     0.12141
     8.70000    90.00000   180.00000     0.11228    90.00000   180.00000     0.12129
     8.80000    90.00000   180.00000     0.11217    90.00000   180.00000     0.12117
     8.90000    90.00000   180.00000     0.11205    90.00000   180.00000     0.12105
     9.00000    90.00000   180.00000     0.11193    90.00000   180.00000     0.12093
     9.10000    90.00000   180.00000     0.11182    90.00000   180.00000     0.12081
     9.20000    90.00000   180.00000     0.11170    90.00000   180.00000     0.12069
     9.30000    90.00000   180.00000     0.11158    90.00000   180.00000     0.12057
     9.40000    90.00000   180.00000     0.11147    90.00000   180.00000     0.12045
     9.50000    90.00000   180.00000     0.11135    90.00000   180.00000     0.12033
     9.60000    90.00000   180.00000     0.11123    90.00000   180.00000     0.12021
     9.70000    90.00000   180.00000     0.11112    90.00000   180.00000     0.12009
     9.80000    90.00000   180.00000     0.11100    90.00000   180.00000     0.11997
     9.90000    90.00000   180.00000     0.11088    90.00000   180.00000     0.11985
    10.00000    90.00000   180.00000     0.11077    90.00000   180.00000     0.11972
    10.10000    90.00000   180.00000     0.11065    90.00000   180.00000     0.11960
    10.20000    90.00000   180.00000     0.11054    90.00000   180.00000     0.11948
    10.30000    90.00000   180.00000     0.11042    90.00000   180.00000     0.11936
    10.40000    90.00000   180.00000     0.11030    90.00000   180.00000     0.11924
    10.50000    90.00000   180.00000     0.11019    90.00000   180.00000     0.11912
    10.60000    90.00000   180.00000     0.11007    90.00000   180.00000     0.11900
    10.70000    90.00000   180.00000     0.10995    90.00000   180.00000     0.11888
    10.80000    90.00000   180.00000     0.10984    90.00000   180.00000     0.11876
    10.90000    90.00000   180.00000     0.10972    90.00000   180.00000     0.11864
    11.00000    90.00000   180.00000     0.10960    90.00000   180.00000     0.11852
    11.10000    90.00000   180.00000     0.10949    90.00000   180.00000     0.11840
    11.20000    90.00000   180.00000     0.10937    90.00000   180.00000     0.11828
    11.30000    90.00000   180.00000     0.10926    90.00000   180.00000     0.11816
    11.40000    90.00000   180.00000     0.10914    90.00000   180.00000     0.11804
    11.50000    90.00000   180.00000     0.10902    90.00000   180.00000     0.11792
    11.60000    90.00000   180.00000     0.10891    90.00000   180.00000     0.11780
    11.70000    90.00000   180.00000     0.10879    90.00000   180.00000     0.11768
    11.80000    90.00000   180.00000     0.10867    90.00000   180.00000     0.11756
    11.90000    90.00000   180.00000     0.10856    90.00000   180.00000     0.11744
    12.00000    90.00000   180.00000     0.10844    90.00000   180.00000     0.11732
    12.10000    90.00000   180.00000     0.10833    90.00000   180.00000     0.11720
    12.20000    90.00000   180.00000     0.10821    90.00000   180.00000     0.11708
    12.30000    90.00000   180.00000     0.10809    90.00000   180.00000     0.11696
    12.40000    90.00000   180.00000     0.10798    90.00000   180.00000     0.11684
    12.50000    90.00000   180.00000     0.10786    90.00000   180.00000     0.11672
    12.60000    90.00000   180.00000     0.10774    90.00000   180.00000     0.11660
    12.70000    90.00000   180.00000     0.10763    90.00000   180.00000     0.11648
    12.80000    90.00000   180.00000     0.10751    90.00000   180.00000     0.11636
    12.90000    90.00000   180.00000     0.10740    90.00000   180.00000     0.11624
    13.00000    90.00000   180.00000     0.10728    90.00000   180.00000     0.11612
    13.10000    90.00000   180.00000     0.10716    90.00000   180.00000     0.11600
    13.20000    90.00000   180.00000     0.10705    90.00000   180.00000     0.11588
    13.30000    90.00000   180.00000     0.10693    90.00000   180.00000     0.11576
    13.40000    90.00000   180.00000     0.10682    90.00000   180.00000     0.11564
    13.50000    90.00000   180.00000     0.10670    90.00000   180.00000     0.11552
    13.60000    90.00000   180.00000     0.10658    90.00000   180.00000     0.11540
    13.70000    90.00000   180.00000     0.10647    90.00000   180.00000     0.11528
    13.80000    90.00000   180.00000     0.10635    90.00000   180.00000     0.11516
    13.90000    90.00000   180.00000     0.10624    90.00000   180.00000     0.11504
    14.00000    90.00000   180.00000     0.10612    90.00000   180.00000     0.11492
    14.10000    90.00000   180.00000     0.10600    90.00000   180.00000     0.11480
    14.20000    90.00000   180.00000     0.10589    90.00000   180.00000     0.11468
    14.30000    90.00000   180.00000     0.10577    90.00000   180.00000     0.11456
    14.40000    90.00000   180.00000     0.10565    90.00000   180.00000     0.11445
    14.50000    90.00000   180.00000     0.10554    90.00000   180.00000     0.11433
    14.60000    90.00000   180.00000     0.10542    90.00000   180.00000     0.11421
    14.70000    90.00000   180.00000     0.10531    90.00000   180.00000     0.11409
    14.80000    90.00000   180.00000     0.10519    90.00000   180.00000     0.11397
    14.90000    90.00000   180.00000     0.10507    90.00000   180.00000     0.11385
    15.00000    90.00000   180.00000     0.10496    90.00000   180.00000     0.11373
    15.10000    90.00000   180.00000     0.10484    90.00000   180.00000     0.11361
    15.20000    90.00000   180.00000     0.10473    90.00000   180.00000     0.11349
    15.30000    90.00000   180.00000     0.10461    90.00000   180.00000     0.11337
    15.40000    90.00000   180.00000     0.10450    90.00000   180.00000     0.11325
    15.50000    90.00000   180.00000     0.10438    90.00000   180.00000     0.11313
    15.60000    90.00000   180.00000     0.10426    90.00000   180.00000     0.11301
    15.70000    90.00000   180.00000     0.10415    90.00000   180.00000     0.11289
    15.80000    90.00000   180.00000     0.10403    90.00000   180.00000     0.11277
    15.90000    90.00000   180.00000     0.10392    90.00000   180.00000     0.11265
    16.00000    90.00000   180.00000     0.10380    90.00000   180.00000     0.11253
    16.10000    90.00000   180.00000     0.10368    90.00000   180.00000     0.11241
    16.20000    90.00000   180.00000     0.10357    90.00000   180.00000     0.11229
    16.30000    90.00000   180.00000     0.10345    90.00000   180.00000     0.11217
    16.40000    90.00000   180.00000     0.10334    90.00000   180.00000     0.11205
    16.50000    90.00000   180.00000     0.10322    90.00000   180.00000     0.11193
    16.60000    90.00000   180.00000     0.10310    90.00000   180.00000     0.11181
    16.70000    90.00000   180.00000     0.10299    90.00000   180.00000     0.11169
    16.80000    90.00000   180.00000     0.10287    90.00000   180.00000     0.11157
    16.90000    90.00000   180.00000     0.10276    90.00000   180.00000     0.11145
    17.00000    90.00000   180.00000     0.10264    90.00000   180.00000     0.11134
    17.10000    90.00000   180.00000     0.10253    90.00000   180.00000     0.11122
    17.20000    90.00000   180.00000     0.10241    90.00000   180.00000     0.11110
    17.30000    90.00000   180.00000     0.10229    90.00000   180.00000     0.11098
    17.40000    90.00000   180.00000     0.10218    90.00000   180.00000     0.11086
    17.50000    90.00000   180.00000     0.10206    90.00000   180.00000     0.11074
    17.60000    90.00000   180.00000     0.10195    90.00000   180.00000     0.11062
    17.70000    90.00000   180.00000     0.10183    90.00000   180.00000     0.11050
    17.80000    90.00000   180.00000     0.10172    90.00000   180.00000     0.11038
    17.90000    90.00000   180.00000     0.10160    90.00000   180.00000     0.11026
    18.00000    90.00000   180.00000     0.10148    90.00000   180.00000     0.11014
    18.10000    90.00000   180.00000     0.10137    90.00000   180.00000     0.11002
    18.20000    90.00000   180.00000     0.10125    90.00000   180.00000     0.10990
    18.30000    90.00000   180.00000     0.10114    90.00000   180.00000     0.10978
    18.40000    90.00000   180.00000     0.10102    90.00000   180.00000     0.10966
    18.50000    90.00000   180.00000     0.10091    90.00000   180.00000     0.10954
    18.60000    90.00000   180.00000     0.10079    90.00000   180.00000     0.10943
    18.70000    90.00000   180.00000     0.10067    90.00000   180.00000     0.10931
    18.80000    90.00000   180.00000     0.10056    90.00000   180.00000     0.10919
    18.90000    90.00000   180.00000     0.10044    90.00000   180.00000     0.10907
    19.00000    90.00000   180.00000     0.10033    90.00000   180.00000     0.10895
    19.10000    90.00000   180.00000     0.10021    90.00000   180.00000     0.10883
    19.20000    90.00000   180.00000     0.10010    90.00000   180.00000     0.10871
    19.30000    90.00000   180.00000     0.09998    90.00000   180.00000     0.10859
    19.40000    90.00000   180.00000     0.09987    90.00000   180.00000     0.10847
    19.50000    90.00000   180.00000     0.09975    90.00000   180.00000     0.10835
    19.60000    90.00000   180.00000     0.09963    90.00000   180.00000     0.10823
    19.70000    90.00000   180.00000     0.09952    90.00000   180.00000     0.10811
    19.80000    90.00000   180.00000     0.09940    90.00000   180.00000     0.10799
    19.90000    90.00000   180.00000     0.09929    90.00000   180.00000     0.10788
    20.00000    90.00000   180.00000     0.09917    90.00000   180.00000     0.10776
    20.10000    90.00000   180.00000     0.09906    90.00000   180.00000     0.10764
    20.20000    90.00000   180.00000     0.09894    90.00000   180.00000     0.10752
    20.30000    90.00000   180.00000     0.09883    90.00000   180.00000     0.10740
    20.40000    90.00000   180.00000     0.09871    90.00000   180.00000     0.10728
    20.50000    90.00000   180.00000     0.09859    90.00000   180.00000     0.10716
    20.60000    90.00000   180.00000     0.09848    90.00000   180.00000     0.10704
    20.70000    90.00000   180.00000     0.09836    90.00000   180.00000     0.10692
    20.80000    90.00000   180.00000     0.09825    90.00000   180.00000     0.10680
    20.90000    90.00000   180.00000     0.09813    90.00000   180.00000     0.10668
    21.00000    90.00000   180.00000     0.09802    90.00000   180.00000     0.10657
    21.10000    90.00000   180.00000     0.09790    90.00000   180.00000     0.10645
    21.20000    90.00000   180.00000     0.09779    90.00000   180.00000     0.10633
    21.30000    90.00000   180.00000     0.09767    90.00000   180.00000     0.10621
    21.40000    90.00000   180.00000     0.09756    90.00000   180.00000     0.10609
    21.50000    90.00000   180.00000     0.09744    90.00000   180.00000     0.10597
    21.60000    90.00000   180.00000     0.09732    90.00000   180.00000     0.10585
    21.70000    90.00000   180.00000     0.09721    90.00000   180.00000     0.10573
    21.80000    90.00000   180.00000     0.09709    90.00000   180.00000     0.10561
    21.90000    90.00000   180.00000     0.09698    90.00000   180.00000     0.10549
    22.00000    90.00000   180.00000     0.09686    90.00000   180.00000     0.10538
    22.10000    90.00000   180.00000     0.09675    90.00000   180.00000     0.10526
    22.20000    90.00000   180.00000     0.09663    90.00000   180.00000     0.10514
    22.30000    90.00000   180.00000     0.09652    90.00000   180.00000     0.10502
    22.40000    90.00000   180.00000     0.09640    90.00000   180.00000     0.10490
    22.50000    90.00000   180.00000     0.09629    90.00000   180.00000     0.10478
    22.60000    90.00000   180.00000     0.09617    90.00000   180.00000     0.10466
    22.70000    90.00000   180.00000     0.09606    90.00000   180.00000     0.10454
    22.80000    90.00000   180.00000     0.09594    90.00000   180.00000     0.10442
    22.90000    90.00000   180.00000     0.09583    90.00000   180.00000     0.10431
    23.00000    90.00000   180.00000     0.09571    90.00000   180.00000     0.10419
    23.10000    90.00000   180.00000     0.09560    90.00000   180.00000     0.10407
    23.20000    90.00000   180.00000     0.09548    90.00000   180.00000     0.10395
    23.30000    90.00000   180.00000     0.09536    90.00000   180.00000     0.10383
