 # applied field (T), theta (degree), phi (degree), abs for RE 1-2
     0.00000   180.00000   180.00000     3.87989   180.00000   180.00000     3.87989
     0.10000   179.26631   180.00000     3.87985   179.26631   180.00000     3.87985
     0.20000   178.48012   180.00000     3.87974   178.48012   180.00000     3.87974
     0.30000   177.74618   180.00000     3.87956   177.74618   180.00000     3.87956
     0.40000   176.95954   180.00000     3.87930   176.95954   180.00000     3.87930
     0.50000   176.22502   180.00000     3.87898   176.22502   180.00000     3.87898
     0.60000   175.43758   180.00000     3.87857   175.43758   180.00000     3.87857
     0.70000   174.70215   180.00000     3.87811   174.70215   180.00000     3.87811
     0.80000   173.91356   180.00000     3.87755   173.91356   180.00000     3.87755
     0.90000   173.17689   180.00000     3.87696   173.17689   180.00000     3.87696
     1.00000   172.38680   180.00000     3.87626   172.38680   180.00000     3.87626
     1.10000   171.59581   180.00000     3.87548   171.59581   180.00000     3.87548
     1.20000   170.80382   180.00000     3.87463   170.80382   180.00000     3.87463
     1.30000   170.01076   180.00000     3.87372   170.01076   180.00000     3.87372
     1.40000   169.21654   180.00000     3.87273   169.21654   180.00000     3.87273
     1.50000   168.42107   180.00000     3.87168   168.42107   180.00000     3.87168
     1.60000   167.57110   180.00000     3.87048   167.57110   180.00000     3.87048
     1.70000   166.77282   180.00000     3.86929   166.77282   180.00000     3.86929
     1.80000   165.91968   180.00000     3.86796   165.91968   180.00000     3.86796
     1.90000   165.06476   180.00000     3.86656   165.06476   180.00000     3.86656
     2.00000   164.20800   180.00000     3.86509   164.20800   180.00000     3.86509
     2.10000   163.29556   180.00000     3.86347   163.29556   180.00000     3.86347
     2.20000   162.43473   180.00000     3.86188   162.43473   180.00000     3.86188
     2.30000   161.51781   180.00000     3.86013   161.51781   180.00000     3.86013
     2.40000   160.59845   180.00000     3.85832   160.59845   180.00000     3.85832
     2.50000   159.62228   180.00000     3.85634   159.62228   180.00000     3.85634
     2.60000   158.64323   180.00000     3.85430   158.64323   180.00000     3.85430
     2.70000   157.66121   180.00000     3.85221   157.66121   180.00000     3.85221
     2.80000   156.67616   180.00000     3.85007   156.67616   180.00000     3.85007
     2.90000   155.63304   180.00000     3.84777   155.63304   180.00000     3.84777
     3.00000   154.53123   180.00000     3.84529   154.53123   180.00000     3.84529
     3.10000   153.42549   180.00000     3.84278   153.42549   180.00000     3.84278
     3.20000   152.26018   180.00000     3.84010   152.26018   180.00000     3.84010
     3.30000   151.09046   180.00000     3.83739   151.09046   180.00000     3.83739
     3.40000   149.86027   180.00000     3.83453   149.86027   180.00000     3.83453
     3.50000   148.56894   180.00000     3.83152   148.56894   180.00000     3.83152
     3.60000   147.21579   180.00000     3.82837   147.21579   180.00000     3.82837
     3.70000   145.80014   180.00000     3.82509   145.80014   180.00000     3.82509
     3.80000   144.32130   180.00000     3.82170   144.32130   180.00000     3.82170
     3.90000   142.72136   180.00000     3.81809   142.72136   180.00000     3.81809
     4.00000   140.99886   180.00000     3.81427   140.99886   180.00000     3.81427
     4.10000   139.21024   180.00000     3.81040   139.21024   180.00000     3.81040
     4.20000   137.18059   180.00000     3.80616   137.18059   180.00000     3.80616
     4.30000   135.02375   180.00000     3.80184   135.02375   180.00000     3.80184
     4.40000   132.56237   180.00000     3.79717   132.56237   180.00000     3.79717
     4.50000   129.73375   180.00000     3.79218   129.73375   180.00000     3.79218
     4.60000   126.35551   180.00000     3.78676   126.35551   180.00000     3.78676
     4.70000   122.18249   180.00000     3.78092   122.18249   180.00000     3.78092
     4.80000   116.30522   180.00000     3.77426   116.30522   180.00000     3.77426
     4.90000   105.32295   180.00000     3.76626   105.32295   180.00000     3.76626
     5.00000    90.00000   180.00000     3.76264    90.00000   180.00000     3.76264
     5.10000    90.00000   180.00000     3.76264    90.00000   180.00000     3.76264
     5.20000    90.00000   180.00000     3.76264    90.00000   180.00000     3.76264
     5.30000    90.00000   180.00000     3.76264    90.00000   180.00000     3.76264
     5.40000    90.00000   180.00000     3.76264    90.00000   180.00000     3.76264
     5.50000    90.00000   180.00000     3.76264    90.00000   180.00000     3.76264
     5.60000    90.00000   180.00000     3.76264    90.00000   180.00000     3.76264
     5.70000    90.00000   180.00000     3.76264    90.00000   180.00000     3.76264
     5.80000    90.00000   180.00000     3.76264    90.00000   180.00000     3.76264
     5.90000    90.00000   180.00000     3.76264    90.00000   180.00000     3.76264
     6.00000    90.00000   180.00000     3.76264    90.00000   180.00000     3.76264
     6.10000    90.00000   180.00000     3.76264    90.00000   180.00000     3.76264
     6.20000    90.00000   180.00000     3.76264    90.00000   180.00000     3.76264
     6.30000    90.00000   180.00000     3.76264    90.00000   180.00000     3.76264
     6.40000    90.00000   180.00000     3.76264    90.00000   180.00000     3.76264
     6.50000    90.00000   180.00000     3.76265    90.00000   180.00000     3.76265
     6.60000    90.00000   180.00000     3.76265    90.00000   180.00000     3.76265
     6.70000    90.00000   180.00000     3.76265    90.00000   180.00000     3.76265
     6.80000    90.00000   180.00000     3.76265    90.00000   180.00000     3.76265
     6.90000    90.00000   180.00000     3.76265    90.00000   180.00000     3.76265
     7.00000    90.00000   180.00000     3.76265    90.00000   180.00000     3.76265
     7.10000    90.00000   180.00000     3.76265    90.00000   180.00000     3.76265
     7.20000    90.00000   180.00000     3.76265    90.00000   180.00000     3.76265
     7.30000    90.00000   180.00000     3.76265    90.00000   180.00000     3.76265
     7.40000    90.00000   180.00000     3.76265    90.00000   180.00000     3.76265
     7.50000    90.00000   180.00000     3.76265    90.00000   180.00000     3.76265
     7.60000    90.00000   180.00000     3.76265    90.00000   180.00000     3.76265
     7.70000    90.00000   180.00000     3.76265    90.00000   180.00000     3.76265
     7.80000    90.00000   180.00000     3.76265    90.00000   180.00000     3.76265
     7.90000    90.00000   180.00000     3.76265    90.00000   180.00000     3.76265
     8.00000    90.00000   180.00000     3.76265    90.00000   180.00000     3.76265
     8.10000    90.00000   180.00000     3.76265    90.00000   180.00000     3.76265
     8.20000    90.00000   180.00000     3.76265    90.00000   180.00000     3.76265
     8.30000    90.00000   180.00000     3.76265    90.00000   180.00000     3.76265
     8.40000    90.00000   180.00000     3.76265    90.00000   180.00000     3.76265
     8.50000    90.00000   180.00000     3.76265    90.00000   180.00000     3.76265
     8.60000    90.00000   180.00000     3.76265    90.00000   180.00000     3.76265
     8.70000    90.00000   180.00000     3.76265    90.00000   180.00000     3.76265
     8.80000    90.00000   180.00000     3.76265    90.00000   180.00000     3.76265
     8.90000    90.00000   180.00000     3.76265    90.00000   180.00000     3.76265
     9.00000    90.00000   180.00000     3.76265    90.00000   180.00000     3.76265
     9.10000    90.00000   180.00000     3.76265    90.00000   180.00000     3.76265
     9.20000    90.00000   180.00000     3.76265    90.00000   180.00000     3.76265
     9.30000    90.00000   180.00000     3.76265    90.00000   180.00000     3.76265
     9.40000    90.00000   180.00000     3.76265    90.00000   180.00000     3.76265
     9.50000    90.00000   180.00000     3.76265    90.00000   180.00000     3.76265
     9.60000    90.00000   180.00000     3.76265    90.00000   180.00000     3.76265
     9.70000    90.00000   180.00000     3.76265    90.00000   180.00000     3.76265
     9.80000    90.00000   180.00000     3.76265    90.00000   180.00000     3.76265
     9.90000    90.00000   180.00000     3.76265    90.00000   180.00000     3.76265
    10.00000    90.00000   180.00000     3.76265    90.00000   180.00000     3.76265
    10.10000    90.00000   180.00000     3.76265    90.00000   180.00000     3.76265
    10.20000    90.00000   180.00000     3.76265    90.00000   180.00000     3.76265
    10.30000    90.00000   180.00000     3.76265    90.00000   180.00000     3.76265
    10.40000    90.00000   180.00000     3.76264    90.00000   180.00000     3.76264
    10.50000    90.00000   180.00000     3.76264    90.00000   180.00000     3.76264
    10.60000    90.00000   180.00000     3.76264    90.00000   180.00000     3.76264
    10.70000    90.00000   180.00000     3.76264    90.00000   180.00000     3.76264
    10.80000    90.00000   180.00000     3.76264    90.00000   180.00000     3.76264
    10.90000    90.00000   180.00000     3.76264    90.00000   180.00000     3.76264
    11.00000    90.00000   180.00000     3.76264    90.00000   180.00000     3.76264
    11.10000    90.00000   180.00000     3.76264    90.00000   180.00000     3.76264
    11.20000    90.00000   180.00000     3.76264    90.00000   180.00000     3.76264
    11.30000    90.00000   180.00000     3.76264    90.00000   180.00000     3.76264
    11.40000    90.00000   180.00000     3.76264    90.00000   180.00000     3.76264
    11.50000    90.00000   180.00000     3.76264    90.00000   180.00000     3.76264
    11.60000    90.00000   180.00000     3.76264    90.00000   180.00000     3.76264
    11.70000    90.00000   180.00000     3.76264    90.00000   180.00000     3.76264
    11.80000    90.00000   180.00000     3.76264    90.00000   180.00000     3.76264
    11.90000    90.00000   180.00000     3.76264    90.00000   180.00000     3.76264
    12.00000    90.00000   180.00000     3.76264    90.00000   180.00000     3.76264
    12.10000    90.00000   180.00000     3.76263    90.00000   180.00000     3.76263
    12.20000    90.00000   180.00000     3.76263    90.00000   180.00000     3.76263
    12.30000    90.00000   180.00000     3.76263    90.00000   180.00000     3.76263
    12.40000    90.00000   180.00000     3.76263    90.00000   180.00000     3.76263
    12.50000    90.00000   180.00000     3.76263    90.00000   180.00000     3.76263
    12.60000    90.00000   180.00000     3.76263    90.00000   180.00000     3.76263
    12.70000    90.00000   180.00000     3.76263    90.00000   180.00000     3.76263
    12.80000    90.00000   180.00000     3.76263    90.00000   180.00000     3.76263
    12.90000    90.00000   180.00000     3.76263    90.00000   180.00000     3.76263
    13.00000    90.00000   180.00000     3.76263    90.00000   180.00000     3.76263
    13.10000    90.00000   180.00000     3.76263    90.00000   180.00000     3.76263
    13.20000    90.00000   180.00000     3.76263    90.00000   180.00000     3.76263
    13.30000    90.00000   180.00000     3.76262    90.00000   180.00000     3.76262
    13.40000    90.00000   180.00000     3.76262    90.00000   180.00000     3.76262
    13.50000    90.00000   180.00000     3.76262    90.00000   180.00000     3.76262
    13.60000    90.00000   180.00000     3.76262    90.00000   180.00000     3.76262
    13.70000    90.00000   180.00000     3.76262    90.00000   180.00000     3.76262
    13.80000    90.00000   180.00000     3.76262    90.00000   180.00000     3.76262
    13.90000    90.00000   180.00000     3.76262    90.00000   180.00000     3.76262
    14.00000    90.00000   180.00000     3.76262    90.00000   180.00000     3.76262
    14.10000    90.00000   180.00000     3.76262    90.00000   180.00000     3.76262
    14.20000    90.00000   180.00000     3.76261    90.00000   180.00000     3.76261
    14.30000    90.00000   180.00000     3.76261    90.00000   180.00000     3.76261
    14.40000    90.00000   180.00000     3.76261    90.00000   180.00000     3.76261
    14.50000    90.00000   180.00000     3.76261    90.00000   180.00000     3.76261
    14.60000    90.00000   180.00000     3.76261    90.00000   180.00000     3.76261
    14.70000    90.00000   180.00000     3.76261    90.00000   180.00000     3.76261
    14.80000    90.00000   180.00000     3.76261    90.00000   180.00000     3.76261
    14.90000    90.00000   180.00000     3.76260    90.00000   180.00000     3.76260
    15.00000    90.00000   180.00000     3.76260    90.00000   180.00000     3.76260
    15.10000    90.00000   180.00000     3.76260    90.00000   180.00000     3.76260
    15.20000    90.00000   180.00000     3.76260    90.00000   180.00000     3.76260
    15.30000    90.00000   180.00000     3.76260    90.00000   180.00000     3.76260
    15.40000    90.00000   180.00000     3.76260    90.00000   180.00000     3.76260
    15.50000    90.00000   180.00000     3.76260    90.00000   180.00000     3.76260
    15.60000    90.00000   180.00000     3.76259    90.00000   180.00000     3.76259
    15.70000    90.00000   180.00000     3.76259    90.00000   180.00000     3.76259
    15.80000    90.00000   180.00000     3.76259    90.00000   180.00000     3.76259
    15.90000    90.00000   180.00000     3.76259    90.00000   180.00000     3.76259
    16.00000    90.00000   180.00000     3.76259    90.00000   180.00000     3.76259
    16.10000    90.00000   180.00000     3.76259    90.00000   180.00000     3.76259
    16.20000    90.00000   180.00000     3.76259    90.00000   180.00000     3.76259
    16.30000    90.00000   180.00000     3.76258    90.00000   180.00000     3.76258
    16.40000    90.00000   180.00000     3.76258    90.00000   180.00000     3.76258
    16.50000    90.00000   180.00000     3.76258    90.00000   180.00000     3.76258
    16.60000    90.00000   180.00000     3.76258    90.00000   180.00000     3.76258
    16.70000    90.00000   180.00000     3.76258    90.00000   180.00000     3.76258
    16.80000    90.00000   180.00000     3.76258    90.00000   180.00000     3.76258
    16.90000    90.00000   180.00000     3.76257    90.00000   180.00000     3.76257
    17.00000    90.00000   180.00000     3.76257    90.00000   180.00000     3.76257
    17.10000    90.00000   180.00000     3.76257    90.00000   180.00000     3.76257
    17.20000    90.00000   180.00000     3.76257    90.00000   180.00000     3.76257
    17.30000    90.00000   180.00000     3.76257    90.00000   180.00000     3.76257
    17.40000    90.00000   180.00000     3.76256    90.00000   180.00000     3.76256
    17.50000    90.00000   180.00000     3.76256    90.00000   180.00000     3.76256
    17.60000    90.00000   180.00000     3.76256    90.00000   180.00000     3.76256
    17.70000    90.00000   180.00000     3.76256    90.00000   180.00000     3.76256
    17.80000    90.00000   180.00000     3.76256    90.00000   180.00000     3.76256
    17.90000    90.00000   180.00000     3.76255    90.00000   180.00000     3.76255
    18.00000    90.00000   180.00000     3.76255    90.00000   180.00000     3.76255
    18.10000    90.00000   180.00000     3.76255    90.00000   180.00000     3.76255
    18.20000    90.00000   180.00000     3.76255    90.00000   180.00000     3.76255
    18.30000    90.00000   180.00000     3.76255    90.00000   180.00000     3.76255
    18.40000    90.00000   180.00000     3.76254    90.00000   180.00000     3.76254
    18.50000    90.00000   180.00000     3.76254    90.00000   180.00000     3.76254
    18.60000    90.00000   180.00000     3.76254    90.00000   180.00000     3.76254
    18.70000    90.00000   180.00000     3.76254    90.00000   180.00000     3.76254
    18.80000    90.00000   180.00000     3.76254    90.00000   180.00000     3.76254
    18.90000    90.00000   180.00000     3.76253    90.00000   180.00000     3.76253
    19.00000    90.00000   180.00000     3.76253    90.00000   180.00000     3.76253
    19.10000    90.00000   180.00000     3.76253    90.00000   180.00000     3.76253
    19.20000    90.00000   180.00000     3.76253    90.00000   180.00000     3.76253
    19.30000    90.00000   180.00000     3.76252    90.00000   180.00000     3.76252
    19.40000    90.00000   180.00000     3.76252    90.00000   180.00000     3.76252
    19.50000    90.00000   180.00000     3.76252    90.00000   180.00000     3.76252
    19.60000    90.00000   180.00000     3.76252    90.00000   180.00000     3.76252
    19.70000    90.00000   180.00000     3.76252    90.00000   180.00000     3.76252
    19.80000    90.00000   180.00000     3.76251    90.00000   180.00000     3.76251
    19.90000    90.00000   180.00000     3.76251    90.00000   180.00000     3.76251
    20.00000    90.00000   180.00000     3.76251    90.00000   180.00000     3.76251
    20.10000    90.00000   180.00000     3.76251    90.00000   180.00000     3.76251
    20.20000    90.00000   180.00000     3.76250    90.00000   180.00000     3.76250
    20.30000    90.00000   180.00000     3.76250    90.00000   180.00000     3.76250
    20.40000    90.00000   180.00000     3.76250    90.00000   180.00000     3.76250
    20.50000    90.00000   180.00000     3.76250    90.00000   180.00000     3.76250
    20.60000    90.00000   180.00000     3.76249    90.00000   180.00000     3.76249
    20.70000    90.00000   180.00000     3.76249    90.00000   180.00000     3.76249
    20.80000    90.00000   180.00000     3.76249    90.00000   180.00000     3.76249
    20.90000    90.00000   180.00000     3.76249    90.00000   180.00000     3.76249
    21.00000    90.00000   180.00000     3.76248    90.00000   180.00000     3.76248
    21.10000    90.00000   180.00000     3.76248    90.00000   180.00000     3.76248
    21.20000    90.00000   180.00000     3.76248    90.00000   180.00000     3.76248
    21.30000    90.00000   180.00000     3.76248    90.00000   180.00000     3.76248
    21.40000    90.00000   180.00000     3.76247    90.00000   180.00000     3.76247
    21.50000    90.00000   180.00000     3.76247    90.00000   180.00000     3.76247
    21.60000    90.00000   180.00000     3.76247    90.00000   180.00000     3.76247
    21.70000    90.00000   180.00000     3.76246    90.00000   180.00000     3.76246
    21.80000    90.00000   180.00000     3.76246    90.00000   180.00000     3.76246
    21.90000    90.00000   180.00000     3.76246    90.00000   180.00000     3.76246
    22.00000    90.00000   180.00000     3.76246    90.00000   180.00000     3.76246
    22.10000    90.00000   180.00000     3.76245    90.00000   180.00000     3.76245
    22.20000    90.00000   180.00000     3.76245    90.00000   180.00000     3.76245
    22.30000    90.00000   180.00000     3.76245    90.00000   180.00000     3.76245
    22.40000    90.00000   180.00000     3.76244    90.00000   180.00000     3.76244
    22.50000    90.00000   180.00000     3.76244    90.00000   180.00000     3.76244
    22.60000    90.00000   180.00000     3.76244    90.00000   180.00000     3.76244
    22.70000    90.00000   180.00000     3.76244    90.00000   180.00000     3.76244
    22.80000    90.00000   180.00000     3.76243    90.00000   180.00000     3.76243
    22.90000    90.00000   180.00000     3.76243    90.00000   180.00000     3.76243
    23.00000    90.00000   180.00000     3.76243    90.00000   180.00000     3.76243
    23.10000    90.00000   180.00000     3.76242    90.00000   180.00000     3.76242
    23.20000    90.00000   180.00000     3.76242    90.00000   180.00000     3.76242
    23.30000    90.00000   180.00000     3.76242    90.00000   180.00000     3.76242
