 # applied field (T), magnetization (2 f.u.), magnetization (T)
  0.000000000000000E+000  4.780278297886392E-015  1.664625028812113E-016
  0.100000000000000       0.256017589651495       8.915240096763005E-003
  0.200000000000000       0.512022674497347       1.783004474163061E-002
  0.300000000000000       0.768002750332205       2.674397850361121E-002
  0.400000000000000        1.02394531415113       3.565660599351480E-002
  0.500000000000000        1.31632346416397       4.583802130158093E-002
  0.600000000000000        1.57214355954277       5.474638410190004E-002
  0.700000000000000        1.82788686354084       6.365207281409359E-002
  0.800000000000000        2.08354088451833       7.255465244473432E-002
  0.900000000000000        2.33909313512103       8.145368814963491E-002
   1.00000000000000        2.59453113287992       9.034874525472233E-002
   1.10000000000000        2.84984240081036       9.923938927690586E-002
   1.20000000000000        3.10501446801104       0.108125185944932     
   1.30000000000000        3.36003487026271       0.117005701220237     
   1.40000000000000        3.65121951298595       0.127145555305659     
   1.50000000000000        3.90587300111621       0.136013293617117     
   1.60000000000000        4.16033570248206       0.144874388206108     
   1.70000000000000        4.41459518300607       0.153728406083690     
   1.80000000000000        4.66863902988234       0.162574915001653     
   1.90000000000000        4.92245482935512       0.171413482678709     
   2.00000000000000        5.17603018231137       0.180243677343473     
   2.10000000000000        5.42935270118108       0.189065067626518     
   2.20000000000000        5.71847332054623       0.199133046713712     
   2.30000000000000        5.97121242522561       0.207934120902110     
   2.40000000000000        6.22365984648537       0.216725037867632     
   2.50000000000000        6.47580325090416       0.225505368126459     
   2.60000000000000        6.72763032563520       0.234274682911231     
   2.70000000000000        6.97912875527795       0.243032553365664     
   2.80000000000000        7.23028625775433       0.251778551793851     
   2.90000000000000        7.48109056157427       0.260512250868590     
   3.00000000000000        7.73152941220624       0.269233223853223     
   3.10000000000000        8.01721700021358       0.279181655299740     
   3.20000000000000        8.26683159440621       0.287873925396934     
   3.30000000000000        8.51604233206423       0.296552132093346     
   3.40000000000000        8.76483704957720       0.305215851818439     
   3.50000000000000        9.01320358179211       0.313864660947962     
   3.60000000000000        9.26112979123290       0.322498136821451     
   3.70000000000000        9.50860356156905       0.331115857514788     
   3.80000000000000        9.75561280660461       0.339717402153224     
   3.90000000000000        10.0372600883168       0.349525138967255     
   4.00000000000000        10.2832333236521       0.358090606884429     
   4.10000000000000        10.5287041627764       0.366638579976926     
   4.20000000000000        10.7736606072814       0.375168640427007     
   4.30000000000000        11.0180906743267       0.383680370959051     
   4.40000000000000        11.2619824336470       0.392173356128243     
   4.50000000000000        11.5053239536774       0.400647180444515     
   4.60000000000000        11.7826752231891       0.410305318239677     
   4.70000000000000        12.0247977037087       0.418736692230791     
   4.80000000000000        12.2663326399908       0.427147606307606     
   4.90000000000000        12.5072682326128       0.435537649581603     
   5.00000000000000        12.7475927010350       0.443906411821836     
   5.10000000000000        12.9872942836372       0.452253483456180     
   5.20000000000000        13.2263612799744       0.460578457042798     
   5.30000000000000        13.4987247897342       0.470062907257375     
   5.40000000000000        13.7363926754840       0.478339159946238     
   5.50000000000000        13.9733893398755       0.486592038852169     
   5.60000000000000        14.2097031692616       0.494821139555876     
   5.70000000000000        14.4453226163664       0.503026059949297     
   5.80000000000000        14.6802361447093       0.511206398300288     
   5.90000000000000        14.9477662074583       0.520522534530445     
   6.00000000000000        15.1811285109803       0.528648854945633     
   6.10000000000000        15.4137489221625       0.536749340618980     
   6.20000000000000        15.6456160360335       0.544823594397860     
   6.30000000000000        15.8767185199699       0.552871221649002     
   6.40000000000000        16.1398217926690       0.562033204814103     
   6.50000000000000        16.3692478320427       0.570022453631930     
   6.60000000000000        16.5978738297748       0.577983842788505     
   6.70000000000000        16.8256886098325       0.585916983103474     
   6.80000000000000        17.0526809970037       0.593821485425066     
   6.90000000000000        17.3110169779190       0.602817458313599     
   7.00000000000000        17.5362098315114       0.610659295902121     
   7.10000000000000        17.7605455366310       0.618471285211685     
   7.20000000000000        17.9840130982040       0.626253043363433     
   7.30000000000000        18.2382652494463       0.635106806015167     
   7.40000000000000        18.4598358034340       0.642822505119524     
   7.50000000000000        18.6805039732964       0.650506780714473     
   7.60000000000000        18.9002589401478       0.658159256056512     
   7.70000000000000        19.1502135617182       0.666863366846824     
   7.80000000000000        19.3679756279296       0.674446443880261     
   7.90000000000000        19.5847908190384       0.681996548105489     
   8.00000000000000        19.8313449048130       0.690582242840413     
   8.10000000000000        20.0460954966871       0.698060452013797     
   8.20000000000000        20.2598660059601       0.705504532002089     
   8.30000000000000        20.5029002847040       0.713967657327559     
   8.40000000000000        20.7145355048822       0.721337380647699     
   8.50000000000000        20.9251578742151       0.728671833701910     
   8.60000000000000        21.1645546677126       0.737008291737200     
   8.70000000000000        21.3729721022981       0.744265962869136     
   8.80000000000000        21.6098222751543       0.752513740534910     
   8.90000000000000        21.8159878292107       0.759692994962687     
   9.00000000000000        22.0210865407547       0.766835098985464     
   9.10000000000000        22.2541053321531       0.774949457359051     
   9.20000000000000        22.4568843163854       0.782010782065178     
   9.30000000000000        22.6872260130600       0.790031916601072     
   9.40000000000000        22.8876395596652       0.797010870231018     
   9.50000000000000        23.1152522854333       0.804936974457154     
   9.60000000000000        23.3132553185471       0.811831987344746     
   9.70000000000000        23.5380878013301       0.819661275825626     
   9.80000000000000        23.7336356695100       0.826470793084216     
   9.90000000000000        23.9556372545017       0.834201501879485     
   10.0000000000000        24.1761086008551       0.841878923535836     
   10.1000000000000        24.3678066201630       0.848554378415832     
   10.2000000000000        24.5853705941568       0.856130557330731     
   10.3000000000000        24.7745029591943       0.862716669037636     
   10.4000000000000        24.9891105725215       0.870189899302831     
   10.5000000000000        25.2021216494965       0.877607533759461     
   10.6000000000000        25.4135225684979       0.884969098065020     
   10.7000000000000        25.6232997692514       0.892274120013278     
   10.8000000000000        25.8055635370284       0.898621048178974     
   10.9000000000000        26.0122599153146       0.905818787373617     
   11.0000000000000        26.2172941641330       0.912958646626116     
   11.1000000000000        26.4206531257728       0.920040167748612     
   11.2000000000000        26.6223237100822       0.927062894905834     
   11.3000000000000        26.8222930110867       0.934026378676085     
   11.4000000000000        27.0205481916584       0.940930172035088     
   11.5000000000000        27.2170764855633       0.947773830427288     
   11.6000000000000        27.4118653118508       0.954556915749215     
   11.7000000000000        27.6049021616128       0.961278992406109     
   11.8000000000000        27.7961746122810       0.967939627809811     
   11.9000000000000        27.9856703792849       0.974538394177623     
   12.0000000000000        28.1966643635869       0.981885787892194     
   12.1000000000000        28.3823445482252       0.988351685135877     
   12.2000000000000        28.5662103874207       0.994754401856440     
   12.3000000000000        28.7708264734513        1.00187969952488     
   12.4000000000000        28.9507978764455        1.00814680121281     
   12.5000000000000        29.1510034061908        1.01511851112074     
   12.6000000000000        29.3270281600382        1.02124817957696     
   12.7000000000000        29.5227650038096        1.02806427748797     
   12.8000000000000        29.7161130510856        1.03479719090244     
   12.9000000000000        29.8860033167568        1.04071323952482     
   13.0000000000000        30.0747962622856        1.04728753170629     
   13.1000000000000        30.2611554773910        1.05377707466765     
   13.2000000000000        30.4450657532170        1.06018133879451     
   13.3000000000000        30.6265121112987        1.06649980249532     
   13.4000000000000        30.8054797994081        1.07273195205672     
   13.5000000000000        30.9819541984210        1.07887727840041     
   13.6000000000000        31.1750524851888        1.08560149446366     
   13.7000000000000        31.3462164455123        1.09156189665428     
   13.8000000000000        31.5333796536798        1.09807943687628     
   13.9000000000000        31.6991710205724        1.10385275051395     
   14.0000000000000        31.8803311412733        1.11016124663801     
   14.1000000000000        32.0583052314834        1.11635879637428     
   14.2000000000000        32.2330753370391        1.12244477450917     
   14.3000000000000        32.4046238886100        1.12841856923003     
   14.4000000000000        32.5729335771056        1.13427957778648     
   14.5000000000000        32.7542756181649        1.14059440888024     
   14.6000000000000        32.9316562346653        1.14677129222160     
   14.7000000000000        33.0894894970009        1.15226748266262     
   14.8000000000000        33.2744472054720        1.15870822128926     
   14.9000000000000        33.4398157481788        1.16446681102011     
   15.0000000000000        33.6011392532518        1.17008454136018     
   15.1000000000000        33.7724585344158        1.17605035225177     
   15.2000000000000        33.9389157896182        1.18184685396088     
   15.3000000000000        34.1136992270495        1.18793329634852     
   15.4000000000000        34.2699505401859        1.19337439894598     
   15.5000000000000        34.4336234689654        1.19907394271325     
   15.6000000000000        34.6033505964667        1.20498431041363     
   15.7000000000000        34.7662960562316        1.21065852169911     
   15.8000000000000        34.9332924466284        1.21647379758585     
   15.9000000000000        35.0924289734105        1.22201537129709     
   16.0000000000000        35.2534466002264        1.22762245011081     
   16.1000000000000        35.4146153623022        1.23323479187201     
   16.2000000000000        35.5740860770811        1.23878800293298     
   16.3000000000000        35.7298896979280        1.24421351564750     
   16.4000000000000        35.8870452847595        1.24968610755440     
   16.5000000000000        36.0472148623808        1.25526365495119     
   16.6000000000000        36.2025338801007        1.26067229244540     
   16.7000000000000        36.3564316085942        1.26603143672034     
   16.8000000000000        36.5139298244860        1.27151595991814     
   16.9000000000000        36.5823445550345        1.27389834993214     
   17.0000000000000        36.5826949050047        1.27391055008646     
   17.1000000000000        36.5830452392544        1.27392274969335     
   17.2000000000000        36.5833955577902        1.27393494875303     
   17.3000000000000        36.5837458606186        1.27394714726574     
   17.4000000000000        36.5840961477461        1.27395934523171     
   17.5000000000000        36.5844464191792        1.27397154265115     
   17.6000000000000        36.5847966749245        1.27398373952430     
   17.7000000000000        36.5851469149886        1.27399593585138     
   17.8000000000000        36.5854971393780        1.27400813163263     
   17.9000000000000        36.5858473480992        1.27402032686827     
   18.0000000000000        36.5861975411587        1.27403252155852     
   18.1000000000000        36.5865477185631        1.27404471570363     
   18.2000000000000        36.5868978803190        1.27405690930380     
   18.3000000000000        36.5872480264329        1.27406910235928     
   18.4000000000000        36.5875981569113        1.27408129487029     
   18.5000000000000        36.5879482717609        1.27409348683706     
   18.6000000000000        36.5882983709881        1.27410567825982     
   18.7000000000000        36.5886484545995        1.27411786913879     
   18.8000000000000        36.5889985226017        1.27413005947420     
   18.9000000000000        36.5893485750012        1.27414224926628     
   19.0000000000000        36.5896986118046        1.27415443851527     
   19.1000000000000        36.5900486330184        1.27416662722138     
   19.2000000000000        36.5903986386493        1.27417881538486     
   19.3000000000000        36.5907486287037        1.27419100300592     
   19.4000000000000        36.5910986031883        1.27420319008479     
   19.5000000000000        36.5914485621097        1.27421537662171     
   19.6000000000000        36.5917985054743        1.27422756261689     
   19.7000000000000        36.5921484332888        1.27423974807058     
   19.8000000000000        36.5924983455597        1.27425193298301     
   19.9000000000000        36.5928482422936        1.27426411735439     
   20.0000000000000        36.5931981234971        1.27427630118495     
   20.1000000000000        36.5935479891768        1.27428848447494     
   20.2000000000000        36.5938978393393        1.27430066722457     
   20.3000000000000        36.5942476739910        1.27431284943408     
   20.4000000000000        36.5945974931387        1.27432503110369     
   20.5000000000000        36.5949472967889        1.27433721223364     
   20.6000000000000        36.5952970849482        1.27434939282415     
   20.7000000000000        36.5956468576232        1.27436157287545     
   20.8000000000000        36.5959966148205        1.27437375238778     
   20.9000000000000        36.5963463565466        1.27438593136136     
   21.0000000000000        36.5966960828081        1.27439810979642     
   21.1000000000000        36.5970457936118        1.27441028769319     
   21.2000000000000        36.5973954889641        1.27442246505191     
   21.3000000000000        36.5977451688716        1.27443464187279     
   21.4000000000000        36.5980948333410        1.27444681815608     
   21.5000000000000        36.5984444823789        1.27445899390200     
   21.6000000000000        36.5987941159918        1.27447116911078     
   21.7000000000000        36.5991437341864        1.27448334378265     
   21.8000000000000        36.5994933369693        1.27449551791784     
   21.9000000000000        36.5998429243471        1.27450769151658     
   22.0000000000000        36.6001924963264        1.27451986457911     
   22.1000000000000        36.6005420529138        1.27453203710565     
   22.2000000000000        36.6008915941159        1.27454420909643     
   22.3000000000000        36.6012411199394        1.27455638055168     
   22.4000000000000        36.6015906303908        1.27456855147163     
   22.5000000000000        36.6019401254768        1.27458072185652     
   22.6000000000000        36.6022896052041        1.27459289170658     
   22.7000000000000        36.6026390695791        1.27460506102203     
   22.8000000000000        36.6029885186086        1.27461722980310     
   22.9000000000000        36.6033379522992        1.27462939805003     
   23.0000000000000        36.6036873706575        1.27464156576305     
   23.1000000000000        36.6040367736902        1.27465373294239     
   23.2000000000000        36.6043861614038        1.27466589958827     
   23.3000000000000        36.6047355338050        1.27467806570094     
   23.4000000000000        36.6050848909005        1.27469023128061     
   23.5000000000000        36.6054342326968        1.27470239632753     
   23.6000000000000        36.6057835592007        1.27471456084193     
   23.7000000000000        36.6061328704187        1.27472672482402     
   23.8000000000000        36.6064821663575        1.27473888827406     
   23.9000000000000        36.6068314470238        1.27475105119226     
   24.0000000000000        36.6071807124242        1.27476321357886     
   24.1000000000000        36.6075299625652        1.27477537543409     
   24.2000000000000        36.6078791974537        1.27478753675818     
   24.3000000000000        36.6082284170962        1.27479969755136     
   24.4000000000000        36.6085776214994        1.27481185781387     
   24.5000000000000        36.6089268106699        1.27482401754594     
   24.6000000000000        36.6092759846144        1.27483617674779     
   24.7000000000000        36.6096251433396        1.27484833541967     
   24.8000000000000        36.6099742868521        1.27486049356180     
   24.9000000000000        36.6103234151585        1.27487265117441     
   25.0000000000000        36.6106725282656        1.27488480825773     
   25.1000000000000        36.6110216261800        1.27489696481201     
   25.2000000000000        36.6113707089084        1.27490912083746     
   25.3000000000000        36.6117197764573        1.27492127633433     
   25.4000000000000        36.6120688288336        1.27493343130284     
   25.5000000000000        36.6124178660438        1.27494558574323     
   25.6000000000000        36.6127668880947        1.27495773965573     
   25.7000000000000        36.6131158949929        1.27496989304057     
   25.8000000000000        36.6134648867451        1.27498204589799     
   25.9000000000000        36.6138138633580        1.27499419822821     
   26.0000000000000        36.6141628248382        1.27500635003147     
   26.1000000000000        36.6145117711924        1.27501850130800     
   26.2000000000000        36.6148607024273        1.27503065205803     
   26.3000000000000        36.6152096185496        1.27504280228181     
   26.4000000000000        36.6155585195660        1.27505495197955     
   26.5000000000000        36.6159074054832        1.27506710115150     
   26.6000000000000        36.6162562763078        1.27507924979788     
   26.7000000000000        36.6166051320466        1.27509139791893     
   26.8000000000000        36.6169539727062        1.27510354551488     
   26.9000000000000        36.6173027982933        1.27511569258597     
   27.0000000000000        36.6176516088146        1.27512783913242     
   27.1000000000000        36.6180004042769        1.27513998515448     
   27.2000000000000        36.6183491846868        1.27515213065237     
