 # applied field (T), theta (degree), phi (degree), abs for RE 3-4
     0.00000   180.00000   360.00000     4.40997   180.00000   360.00000     4.40997
     0.10000   179.71542   180.00000     4.40996   179.71582   180.00000     4.40996
     0.20000   179.43083   180.00000     4.40995   179.43163   180.00000     4.40995
     0.30000   179.09880   180.00000     4.40993   179.10006   180.00000     4.40993
     0.40000   178.81414   180.00000     4.40991   178.81579   180.00000     4.40990
     0.50000   178.52944   180.00000     4.40987   178.53146   180.00000     4.40986
     0.60000   178.24468   180.00000     4.40984   178.24705   180.00000     4.40982
     0.70000   177.91238   180.00000     4.40978   177.91516   180.00000     4.40976
     0.80000   177.62745   180.00000     4.40973   177.63055   180.00000     4.40970
     0.90000   177.34242   180.00000     4.40967   177.34583   180.00000     4.40963
     1.00000   177.05729   180.00000     4.40960   177.06097   180.00000     4.40955
     1.10000   176.77203   180.00000     4.40953   176.77597   180.00000     4.40947
     1.20000   176.43909   180.00000     4.40944   176.44328   180.00000     4.40936
     1.30000   176.15354   180.00000     4.40935   176.15792   180.00000     4.40926
     1.40000   175.86783   180.00000     4.40925   175.87236   180.00000     4.40916
     1.50000   175.53432   180.00000     4.40913   175.53897   180.00000     4.40902
     1.60000   175.24823   180.00000     4.40903   175.25295   180.00000     4.40890
     1.70000   174.96196   180.00000     4.40891   174.96670   180.00000     4.40876
     1.80000   174.67548   180.00000     4.40879   174.68020   180.00000     4.40863
     1.90000   174.34101   180.00000     4.40864   174.34564   180.00000     4.40845
     2.00000   174.05405   180.00000     4.40850   174.05855   180.00000     4.40830
     2.10000   173.76686   180.00000     4.40836   173.77116   180.00000     4.40814
     2.20000   173.43150   180.00000     4.40818   173.43552   180.00000     4.40794
     2.30000   173.14375   180.00000     4.40802   173.14745   180.00000     4.40776
     2.40000   172.80772   180.00000     4.40783   172.81098   180.00000     4.40754
     2.50000   172.51936   180.00000     4.40766   172.52216   180.00000     4.40734
     2.60000   172.18259   180.00000     4.40746   172.18477   180.00000     4.40711
     2.70000   171.89356   180.00000     4.40727   171.89514   180.00000     4.40690
     2.80000   171.60422   180.00000     4.40708   171.60510   180.00000     4.40668
     2.90000   171.26626   180.00000     4.40685   171.26624   180.00000     4.40642
     3.00000   170.97617   180.00000     4.40665   170.97530   180.00000     4.40618
     3.10000   170.63732   180.00000     4.40640   170.63534   180.00000     4.40590
     3.20000   170.29797   180.00000     4.40615   170.29476   180.00000     4.40561
     3.30000   170.00665   180.00000     4.40592   170.00228   180.00000     4.40535
     3.40000   169.66631   180.00000     4.40565   169.66048   180.00000     4.40505
     3.50000   169.32542   180.00000     4.40538   169.31800   180.00000     4.40473
     3.60000   169.03275   180.00000     4.40513   169.02384   180.00000     4.40445
     3.70000   168.69079   180.00000     4.40484   168.68002   180.00000     4.40411
     3.80000   168.34823   180.00000     4.40454   168.33546   180.00000     4.40377
     3.90000   168.00505   180.00000     4.40423   167.99012   180.00000     4.40342
     4.00000   167.71036   180.00000     4.40396   167.69345   180.00000     4.40311
     4.10000   167.36599   180.00000     4.40364   167.34663   180.00000     4.40274
     4.20000   167.02096   180.00000     4.40331   166.99897   180.00000     4.40236
     4.30000   166.67525   180.00000     4.40297   166.65047   180.00000     4.40198
     4.40000   166.32884   180.00000     4.40263   166.30109   180.00000     4.40158
     4.50000   165.98172   180.00000     4.40228   165.95082   180.00000     4.40118
     4.60000   165.63387   180.00000     4.40192   165.59964   180.00000     4.40077
     4.70000   165.28528   180.00000     4.40156   165.24751   180.00000     4.40035
     4.80000   164.88601   180.00000     4.40113   164.84397   180.00000     4.39986
     4.90000   164.53577   180.00000     4.40076   164.48978   180.00000     4.39942
     5.00000   164.18475   180.00000     4.40037   164.13460   180.00000     4.39898
     5.10000   163.78264   180.00000     4.39992   163.72748   180.00000     4.39846
     5.20000   163.42987   180.00000     4.39952   163.37009   180.00000     4.39800
     5.30000   163.02574   180.00000     4.39906   162.96040   180.00000     4.39747
     5.40000   162.67116   180.00000     4.39865   162.60072   180.00000     4.39700
     5.50000   162.26493   180.00000     4.39818   162.18837   180.00000     4.39645
     5.60000   161.85755   180.00000     4.39769   161.77456   180.00000     4.39589
     5.70000   161.44900   180.00000     4.39720   161.35927   180.00000     4.39532
     5.80000   161.09049   180.00000     4.39677   160.99459   180.00000     4.39482
     5.90000   160.62833   180.00000     4.39620   160.52412   180.00000     4.39417
     6.00000   160.21616   180.00000     4.39569   160.10422   180.00000     4.39358
     6.10000   159.80276   180.00000     4.39517   159.68273   180.00000     4.39298
     6.20000   159.38810   180.00000     4.39465   159.25963   180.00000     4.39238
     6.30000   158.92015   180.00000     4.39406   158.78177   180.00000     4.39169
     6.40000   158.45056   180.00000     4.39346   158.30181   180.00000     4.39100
     6.50000   158.03171   180.00000     4.39292   157.87334   180.00000     4.39038
     6.60000   157.55899   180.00000     4.39231   157.38936   180.00000     4.38968
     6.70000   157.08457   180.00000     4.39170   156.90321   180.00000     4.38897
     6.80000   156.55551   180.00000     4.39101   156.36054   180.00000     4.38818
     6.90000   156.07747   180.00000     4.39039   155.86973   180.00000     4.38746
     7.00000   155.54434   180.00000     4.38969   155.32184   180.00000     4.38666
     7.10000   155.00905   180.00000     4.38899   154.77117   180.00000     4.38585
     7.20000   154.47157   180.00000     4.38828   154.21769   180.00000     4.38504
     7.30000   153.87787   180.00000     4.38751   153.60568   180.00000     4.38415
     7.40000   153.33576   180.00000     4.38679   153.04626   180.00000     4.38334
     7.50000   152.68243   180.00000     4.38594   152.37134   180.00000     4.38237
     7.60000   152.08067   180.00000     4.38516   151.74900   180.00000     4.38148
     7.70000   151.42117   180.00000     4.38430   151.06621   180.00000     4.38052
     7.80000   150.70313   180.00000     4.38338   150.32196   180.00000     4.37948
     7.90000   149.98131   180.00000     4.38246   149.57291   180.00000     4.37845
     8.00000   149.19980   180.00000     4.38148   148.76099   180.00000     4.37735
     8.10000   148.41392   180.00000     4.38050   147.94360   180.00000     4.37628
     8.20000   147.51058   180.00000     4.37940   147.00296   180.00000     4.37507
     8.30000   146.54469   180.00000     4.37824   145.99604   180.00000     4.37382
     8.40000   145.51522   180.00000     4.37704   144.92169   180.00000     4.37254
     8.50000   144.30563   180.00000     4.37566   143.65808   180.00000     4.37111
     8.60000    90.00000   180.00000     4.35587    90.00000   180.00000     4.36956
     8.70000    90.00000   180.00000     4.35583    90.00000   180.00000     4.36952
     8.80000    90.00000   180.00000     4.35579    90.00000   180.00000     4.36948
     8.90000    90.00000   180.00000     4.35574    90.00000   180.00000     4.36943
     9.00000    90.00000   180.00000     4.35570    90.00000   180.00000     4.36939
     9.10000    90.00000   180.00000     4.35566    90.00000   180.00000     4.36935
     9.20000    90.00000   180.00000     4.35561    90.00000   180.00000     4.36931
     9.30000    90.00000   180.00000     4.35557    90.00000   180.00000     4.36926
     9.40000    90.00000   180.00000     4.35552    90.00000   180.00000     4.36922
     9.50000    90.00000   180.00000     4.35548    90.00000   180.00000     4.36918
     9.60000    90.00000   180.00000     4.35544    90.00000   180.00000     4.36914
     9.70000    90.00000   180.00000     4.35539    90.00000   180.00000     4.36910
     9.80000    90.00000   180.00000     4.35535    90.00000   180.00000     4.36905
     9.90000    90.00000   180.00000     4.35530    90.00000   180.00000     4.36901
    10.00000    90.00000   180.00000     4.35526    90.00000   180.00000     4.36897
    10.10000    90.00000   180.00000     4.35522    90.00000   180.00000     4.36893
    10.20000    90.00000   180.00000     4.35517    90.00000   180.00000     4.36888
    10.30000    90.00000   180.00000     4.35513    90.00000   180.00000     4.36884
    10.40000    90.00000   180.00000     4.35509    90.00000   180.00000     4.36880
    10.50000    90.00000   180.00000     4.35504    90.00000   180.00000     4.36876
    10.60000    90.00000   180.00000     4.35500    90.00000   180.00000     4.36871
    10.70000    90.00000   180.00000     4.35495    90.00000   180.00000     4.36867
    10.80000    90.00000   180.00000     4.35491    90.00000   180.00000     4.36863
    10.90000    90.00000   180.00000     4.35487    90.00000   180.00000     4.36859
    11.00000    90.00000   180.00000     4.35482    90.00000   180.00000     4.36854
    11.10000    90.00000   180.00000     4.35478    90.00000   180.00000     4.36850
    11.20000    90.00000   180.00000     4.35473    90.00000   180.00000     4.36846
    11.30000    90.00000   180.00000     4.35469    90.00000   180.00000     4.36842
    11.40000    90.00000   180.00000     4.35465    90.00000   180.00000     4.36837
    11.50000    90.00000   180.00000     4.35460    90.00000   180.00000     4.36833
    11.60000    90.00000   180.00000     4.35456    90.00000   180.00000     4.36829
    11.70000    90.00000   180.00000     4.35451    90.00000   180.00000     4.36825
    11.80000    90.00000   180.00000     4.35447    90.00000   180.00000     4.36820
    11.90000    90.00000   180.00000     4.35443    90.00000   180.00000     4.36816
    12.00000    90.00000   180.00000     4.35438    90.00000   180.00000     4.36812
    12.10000    90.00000   180.00000     4.35434    90.00000   180.00000     4.36808
    12.20000    90.00000   180.00000     4.35429    90.00000   180.00000     4.36803
    12.30000    90.00000   180.00000     4.35425    90.00000   180.00000     4.36799
    12.40000    90.00000   180.00000     4.35421    90.00000   180.00000     4.36795
    12.50000    90.00000   180.00000     4.35416    90.00000   180.00000     4.36790
    12.60000    90.00000   180.00000     4.35412    90.00000   180.00000     4.36786
    12.70000    90.00000   180.00000     4.35407    90.00000   180.00000     4.36782
    12.80000    90.00000   180.00000     4.35403    90.00000   180.00000     4.36778
    12.90000    90.00000   180.00000     4.35399    90.00000   180.00000     4.36773
    13.00000    90.00000   180.00000     4.35394    90.00000   180.00000     4.36769
    13.10000    90.00000   180.00000     4.35390    90.00000   180.00000     4.36765
    13.20000    90.00000   180.00000     4.35385    90.00000   180.00000     4.36761
    13.30000    90.00000   180.00000     4.35381    90.00000   180.00000     4.36756
    13.40000    90.00000   180.00000     4.35377    90.00000   180.00000     4.36752
    13.50000    90.00000   180.00000     4.35372    90.00000   180.00000     4.36748
    13.60000    90.00000   180.00000     4.35368    90.00000   180.00000     4.36744
    13.70000    90.00000   180.00000     4.35363    90.00000   180.00000     4.36739
    13.80000    90.00000   180.00000     4.35359    90.00000   180.00000     4.36735
    13.90000    90.00000   180.00000     4.35355    90.00000   180.00000     4.36731
    14.00000    90.00000   180.00000     4.35350    90.00000   180.00000     4.36727
    14.10000    90.00000   180.00000     4.35346    90.00000   180.00000     4.36722
    14.20000    90.00000   180.00000     4.35341    90.00000   180.00000     4.36718
    14.30000    90.00000   180.00000     4.35337    90.00000   180.00000     4.36714
    14.40000    90.00000   180.00000     4.35333    90.00000   180.00000     4.36709
    14.50000    90.00000   180.00000     4.35328    90.00000   180.00000     4.36705
    14.60000    90.00000   180.00000     4.35324    90.00000   180.00000     4.36701
    14.70000    90.00000   180.00000     4.35319    90.00000   180.00000     4.36697
    14.80000    90.00000   180.00000     4.35315    90.00000   180.00000     4.36692
    14.90000    90.00000   180.00000     4.35310    90.00000   180.00000     4.36688
    15.00000    90.00000   180.00000     4.35306    90.00000   180.00000     4.36684
    15.10000    90.00000   180.00000     4.35302    90.00000   180.00000     4.36680
    15.20000    90.00000   180.00000     4.35297    90.00000   180.00000     4.36675
    15.30000    90.00000   180.00000     4.35293    90.00000   180.00000     4.36671
    15.40000    90.00000   180.00000     4.35288    90.00000   180.00000     4.36667
    15.50000    90.00000   180.00000     4.35284    90.00000   180.00000     4.36662
    15.60000    90.00000   180.00000     4.35280    90.00000   180.00000     4.36658
    15.70000    90.00000   180.00000     4.35275    90.00000   180.00000     4.36654
    15.80000    90.00000   180.00000     4.35271    90.00000   180.00000     4.36650
    15.90000    90.00000   180.00000     4.35266    90.00000   180.00000     4.36645
    16.00000    90.00000   180.00000     4.35262    90.00000   180.00000     4.36641
    16.10000    90.00000   180.00000     4.35257    90.00000   180.00000     4.36637
    16.20000    90.00000   180.00000     4.35253    90.00000   180.00000     4.36633
    16.30000    90.00000   180.00000     4.35249    90.00000   180.00000     4.36628
    16.40000    90.00000   180.00000     4.35244    90.00000   180.00000     4.36624
    16.50000    90.00000   180.00000     4.35240    90.00000   180.00000     4.36620
    16.60000    90.00000   180.00000     4.35235    90.00000   180.00000     4.36615
    16.70000    90.00000   180.00000     4.35231    90.00000   180.00000     4.36611
    16.80000    90.00000   180.00000     4.35227    90.00000   180.00000     4.36607
    16.90000    90.00000   180.00000     4.35222    90.00000   180.00000     4.36603
    17.00000    90.00000   180.00000     4.35218    90.00000   180.00000     4.36598
    17.10000    90.00000   180.00000     4.35213    90.00000   180.00000     4.36594
    17.20000    90.00000   180.00000     4.35209    90.00000   180.00000     4.36590
    17.30000    90.00000   180.00000     4.35204    90.00000   180.00000     4.36585
    17.40000    90.00000   180.00000     4.35200    90.00000   180.00000     4.36581
    17.50000    90.00000   180.00000     4.35196    90.00000   180.00000     4.36577
    17.60000    90.00000   180.00000     4.35191    90.00000   180.00000     4.36573
    17.70000    90.00000   180.00000     4.35187    90.00000   180.00000     4.36568
    17.80000    90.00000   180.00000     4.35182    90.00000   180.00000     4.36564
    17.90000    90.00000   180.00000     4.35178    90.00000   180.00000     4.36560
    18.00000    90.00000   180.00000     4.35173    90.00000   180.00000     4.36555
    18.10000    90.00000   180.00000     4.35169    90.00000   180.00000     4.36551
    18.20000    90.00000   180.00000     4.35165    90.00000   180.00000     4.36547
    18.30000    90.00000   180.00000     4.35160    90.00000   180.00000     4.36543
    18.40000    90.00000   180.00000     4.35156    90.00000   180.00000     4.36538
    18.50000    90.00000   180.00000     4.35151    90.00000   180.00000     4.36534
    18.60000    90.00000   180.00000     4.35147    90.00000   180.00000     4.36530
    18.70000    90.00000   180.00000     4.35142    90.00000   180.00000     4.36525
    18.80000    90.00000   180.00000     4.35138    90.00000   180.00000     4.36521
    18.90000    90.00000   180.00000     4.35133    90.00000   180.00000     4.36517
    19.00000    90.00000   180.00000     4.35129    90.00000   180.00000     4.36512
    19.10000    90.00000   180.00000     4.35125    90.00000   180.00000     4.36508
    19.20000    90.00000   180.00000     4.35120    90.00000   180.00000     4.36504
    19.30000    90.00000   180.00000     4.35116    90.00000   180.00000     4.36500
    19.40000    90.00000   180.00000     4.35111    90.00000   180.00000     4.36495
    19.50000    90.00000   180.00000     4.35107    90.00000   180.00000     4.36491
    19.60000    90.00000   180.00000     4.35102    90.00000   180.00000     4.36487
    19.70000    90.00000   180.00000     4.35098    90.00000   180.00000     4.36482
    19.80000    90.00000   180.00000     4.35094    90.00000   180.00000     4.36478
    19.90000    90.00000   180.00000     4.35089    90.00000   180.00000     4.36474
    20.00000    90.00000   180.00000     4.35085    90.00000   180.00000     4.36470
    20.10000    90.00000   180.00000     4.35080    90.00000   180.00000     4.36465
    20.20000    90.00000   180.00000     4.35076    90.00000   180.00000     4.36461
    20.30000    90.00000   180.00000     4.35071    90.00000   180.00000     4.36457
    20.40000    90.00000   180.00000     4.35067    90.00000   180.00000     4.36452
    20.50000    90.00000   180.00000     4.35062    90.00000   180.00000     4.36448
    20.60000    90.00000   180.00000     4.35058    90.00000   180.00000     4.36444
    20.70000    90.00000   180.00000     4.35054    90.00000   180.00000     4.36439
    20.80000    90.00000   180.00000     4.35049    90.00000   180.00000     4.36435
    20.90000    90.00000   180.00000     4.35045    90.00000   180.00000     4.36431
    21.00000    90.00000   180.00000     4.35040    90.00000   180.00000     4.36427
    21.10000    90.00000   180.00000     4.35036    90.00000   180.00000     4.36422
    21.20000    90.00000   180.00000     4.35031    90.00000   180.00000     4.36418
    21.30000    90.00000   180.00000     4.35027    90.00000   180.00000     4.36414
    21.40000    90.00000   180.00000     4.35022    90.00000   180.00000     4.36409
    21.50000    90.00000   180.00000     4.35018    90.00000   180.00000     4.36405
    21.60000    90.00000   180.00000     4.35014    90.00000   180.00000     4.36401
    21.70000    90.00000   180.00000     4.35009    90.00000   180.00000     4.36396
    21.80000    90.00000   180.00000     4.35005    90.00000   180.00000     4.36392
    21.90000    90.00000   180.00000     4.35000    90.00000   180.00000     4.36388
    22.00000    90.00000   180.00000     4.34996    90.00000   180.00000     4.36383
    22.10000    90.00000   180.00000     4.34991    90.00000   180.00000     4.36379
    22.20000    90.00000   180.00000     4.34987    90.00000   180.00000     4.36375
    22.30000    90.00000   180.00000     4.34982    90.00000   180.00000     4.36371
    22.40000    90.00000   180.00000     4.34978    90.00000   180.00000     4.36366
    22.50000    90.00000   180.00000     4.34973    90.00000   180.00000     4.36362
    22.60000    90.00000   180.00000     4.34969    90.00000   180.00000     4.36358
    22.70000    90.00000   180.00000     4.34965    90.00000   180.00000     4.36353
    22.80000    90.00000   180.00000     4.34960    90.00000   180.00000     4.36349
    22.90000    90.00000   180.00000     4.34956    90.00000   180.00000     4.36345
    23.00000    90.00000   180.00000     4.34951    90.00000   180.00000     4.36340
    23.10000    90.00000   180.00000     4.34947    90.00000   180.00000     4.36336
    23.20000    90.00000   180.00000     4.34942    90.00000   180.00000     4.36332
    23.30000    90.00000   180.00000     4.34938    90.00000   180.00000     4.36327
