 # applied field (T), magnetization (2 f.u.), magnetization (T)
  0.000000000000000E+000  4.058339727254588E-015  1.413226064348077E-016
  0.100000000000000       0.204092886187901       7.107078403805425E-003
  0.200000000000000       0.408182743013512       1.421405131684287E-002
  0.300000000000000       0.663152698794489       2.309280990660519E-002
  0.400000000000000       0.867224667259944       3.019915989749909E-002
  0.500000000000000        1.07128376253898       3.730506160846075E-002
  0.600000000000000        1.27532695590481       4.441040957085220E-002
  0.700000000000000        1.47935121892940       5.151509832643867E-002
  0.800000000000000        1.73421685171821       6.039022410126812E-002
  0.900000000000000        1.93818745894629       6.749304441371697E-002
   1.00000000000000        2.14212929711136       7.459486290787537E-002
   1.10000000000000        2.34603933968901       8.169557419179727E-002
   1.20000000000000        2.54991456075086       8.879507289429381E-002
   1.30000000000000        2.75375193502108       9.589325366689809E-002
   1.40000000000000        3.00835742738315       0.104759320633048     
   1.50000000000000        3.21209860296559       0.111854151501453     
   1.60000000000000        3.41579210572643       0.118947322270445     
   1.70000000000000        3.61943491379096       0.126038727709992     
   1.80000000000000        3.82302400623082       0.133128262623019     
   1.90000000000000        4.07729692154019       0.141982748336961     
   2.00000000000000        4.28075413273839       0.149067690780637     
   2.10000000000000        4.48414781844554       0.156150421091134     
   2.20000000000000        4.68747496237530       0.163230834233022     
   2.30000000000000        4.89073254947708       0.170308825213906     
   2.40000000000000        5.14456892539675       0.179148109419716     
   2.50000000000000        5.34765901652079       0.186220267727702     
   2.60000000000000        5.55066976205669       0.193289663003000     
   2.70000000000000        5.75359815281413       0.200356190457285     
   2.80000000000000        5.95644118112180       0.207419745355131     
   2.90000000000000        6.20973727949030       0.216240215603298     
   3.00000000000000        6.41237728270328       0.223296700606191     
   3.10000000000000        6.61492216065096       0.230349873084422     
   3.20000000000000        6.81736891271106       0.237399628548031     
   3.30000000000000        7.07015185792419       0.246202229384988     
   3.40000000000000        7.27236689829119       0.253243916006999     
   3.50000000000000        7.47447407441432       0.260281846497905     
   3.60000000000000        7.67647039365594       0.267315916645791     
   3.70000000000000        7.87835286538872       0.274346022308749     
   3.80000000000000        8.13040855248660       0.283123298008013     
   3.90000000000000        8.33202398214082       0.290144104527698     
   4.00000000000000        8.53351586026898       0.297160608641754     
   4.10000000000000        8.73488120534370       0.304172706525155     
   4.20000000000000        8.98627282979845       0.312926857727735     
   4.30000000000000        9.18734262911083       0.319928663890812     
   4.40000000000000        9.38827622237294       0.326925726982748     
   4.50000000000000        9.58907063802185       0.333917943525510     
   4.60000000000000        9.83973102439165       0.342646630996852     
   4.70000000000000        10.0402014860563       0.349627566566483     
   4.80000000000000        10.2405231308816       0.356603319922441     
   4.90000000000000        10.4905791693421       0.365310962329184     
   5.00000000000000        10.6905552061803       0.372274680659781     
   5.10000000000000        10.8903728145537       0.379232882073343     
   5.20000000000000        11.0900290424688       0.386185463773295     
   5.30000000000000        11.3392358845799       0.394863534815996     
   5.40000000000000        11.5385182837844       0.401803098766995     
   5.50000000000000        11.7376297291772       0.408736709633758     
   5.60000000000000        11.9861423305856       0.417390605296331     
   5.70000000000000        12.1848584453996       0.424310449659659     
   5.80000000000000        12.3833940638953       0.431224008642297     
   5.90000000000000        12.5817462559466       0.438131180209157     
   6.00000000000000        12.8292925326702       0.446751425775309     
   6.10000000000000        13.0272213829740       0.453643855412417     
   6.20000000000000        13.2249573065513       0.460529566807664     
   6.30000000000000        13.4717201187534       0.469122529973704     
   6.40000000000000        13.6690113665774       0.475992756530150     
   6.50000000000000        13.9152092808916       0.484566048390374     
   6.60000000000000        14.1120411291213       0.491420277383181     
   6.70000000000000        14.3086640507802       0.498267230975324     
   6.80000000000000        14.5540135332147       0.506810978092456     
   6.90000000000000        14.7501558528813       0.513641195794856     
   7.00000000000000        14.9460798385262       0.520463810503153     
   7.10000000000000        15.1905426910844       0.528976682717373     
   7.20000000000000        15.3859649528852       0.535781826014669     
   7.30000000000000        15.6297917172664       0.544272547880439     
   7.40000000000000        15.8246976814925       0.551059712269151     
   7.50000000000000        16.0193694745214       0.557838722169535     
   7.60000000000000        16.2622453055315       0.566296329906971     
   7.70000000000000        16.4563798192343       0.573056630256195     
   7.80000000000000        16.6985751969868       0.581490542730448     
   7.90000000000000        16.8921579560011       0.588231629456387     
   8.00000000000000        17.1336548194438       0.596641217731696     
   8.10000000000000        17.3266713892327       0.603362588183876     
   8.20000000000000        17.5674517286985       0.611747225113862     
   8.30000000000000        17.7598877157535       0.618448378070534     
   8.40000000000000        17.9999335731685       0.626807438305422     
   8.50000000000000        18.1917746251204       0.633487873977419     
   8.60000000000000        18.4310680940925       0.641820733967150     
   8.70000000000000        18.6222998997252       0.648479953998373     
   8.80000000000000        18.8608231255107       0.656785991991414     
   8.90000000000000        19.0514314146739       0.663423499455787     
   9.00000000000000        19.2891665940130       0.671702095493429     
   9.10000000000000        19.5264563593319       0.679965180983775     
   9.20000000000000        19.7160665182453       0.686567930794050     
   9.30000000000000        19.9525406470533       0.694802613566688     
   9.40000000000000        20.1885540717427       0.703021253348549     
   9.50000000000000        20.3771318271461       0.709588052015070     
   9.60000000000000        20.6123021474834       0.717777332573075     
   9.70000000000000        20.8469965410080       0.725950040044011     
   9.80000000000000        21.0345077694372       0.732479699293445     
   9.90000000000000        21.2683317103117       0.740622095197199     
   10.0000000000000        21.5016645673493       0.748747390204411     
   10.1000000000000        21.7345009437732       0.756855396384396     
   10.2000000000000        21.9205104631863       0.763332761975209     
   10.3000000000000        22.1524394577394       0.771409170610478     
   10.4000000000000        22.3838569000906       0.779467765584157     
   10.5000000000000        22.6147574231182       0.787508359998245     
   10.6000000000000        22.8451356671654       0.795530767214668     
   10.7000000000000        23.0749862798739       0.803534800849520     
   10.8000000000000        23.3043039160089       0.811520274766951     
   10.9000000000000        23.5330832372735       0.819487003072708     
   11.0000000000000        23.7613189121127       0.827434800107310     
   11.1000000000000        23.9890056155076       0.835363480438880     
   11.2000000000000        24.2161380287587       0.843272858855603     
   11.3000000000000        24.4427108392595       0.851162750357834     
   11.4000000000000        24.6687187402586       0.859032970149824     
   11.5000000000000        24.8941564306125       0.866883333631101     
   11.6000000000000        25.1190186145268       0.874713656387468     
   11.7000000000000        25.3879871021437       0.884079882547289     
   11.8000000000000        25.6115647460234       0.891865474069220     
   11.9000000000000        25.8345499733463       0.899630436009223     
   12.0000000000000        26.1012444337155       0.908917474254931     
   12.1000000000000        26.3229079800426       0.916636411609572     
   12.2000000000000        26.5439622425511       0.924334132017608     
   12.3000000000000        26.8083179568991       0.933539728662636     
   12.4000000000000        27.0280134810665       0.941190134046120     
   12.5000000000000        27.2907239152983       0.950338437489996     
   12.6000000000000        27.5525241922552       0.959455046741911     
   12.7000000000000        27.7700699245791       0.967030590431441     
   12.8000000000000        28.0301778105458       0.976088265951358     
   12.9000000000000        28.2893498622149       0.985113353134414     
   13.0000000000000        28.5475770218439       0.994105536564983     
   13.1000000000000        28.8048502316254        1.00306450082517     
   13.2000000000000        29.0611604326546        1.01198993045887     
   13.3000000000000        29.3164985638815        1.02088150993529     
   13.4000000000000        29.6130735284610        1.03120906992644     
   13.5000000000000        29.8662746808063        1.04002623389165     
   13.6000000000000        30.1603322671630        1.05026613181512     
   13.7000000000000        30.4113538641715        1.05900739763928     
   13.8000000000000        30.7028443899105        1.06915790341676     
   13.9000000000000        30.9929322023908        1.07925956284152     
   14.0000000000000        31.2816028586263        1.08931187296885     
   14.1000000000000        31.5688418949782        1.09931433013489     
   14.2000000000000        31.8546348248611        1.10926642987667     
   14.3000000000000        32.1794010577656        1.12057568775074     
   14.4000000000000        32.5022386183698        1.13181778392451     
   14.5000000000000        51.7251489104590        1.80121265185448     
   14.6000000000000        51.7251953756911        1.80121426990229     
   14.7000000000000        51.7252418465998        1.80121588814777     
   14.8000000000000        51.7252883231864        1.80121750659098     
   14.9000000000000        51.7253348054520        1.80121912523194     
   15.0000000000000        51.7253812933978        1.80122074407071     
   15.1000000000000        51.7254277870248        1.80122236310731     
   15.2000000000000        51.7254742863343        1.80122398234179     
   15.3000000000000        51.7255207913273        1.80122560177418     
   15.4000000000000        51.7255673020050        1.80122722140453     
   15.5000000000000        51.7256138183685        1.80122884123288     
   15.6000000000000        51.7256603404190        1.80123046125926     
   15.7000000000000        51.7257068681575        1.80123208148372     
   15.8000000000000        51.7257534015854        1.80123370190629     
   15.9000000000000        51.7257999407035        1.80123532252702     
   16.0000000000000        51.7258464855132        1.80123694334594     
   16.1000000000000        51.7258930360156        1.80123856436310     
   16.2000000000000        51.7259395922117        1.80124018557853     
   16.3000000000000        51.7259861541027        1.80124180699227     
   16.4000000000000        51.7260327216899        1.80124342860437     
   16.5000000000000        51.7260792949742        1.80124505041485     
   16.6000000000000        51.7261258739569        1.80124667242377     
   16.7000000000000        51.7261724586390        1.80124829463116     
   16.8000000000000        51.7262190490218        1.80124991703707     
   16.9000000000000        51.7262656451063        1.80125153964152     
   17.0000000000000        51.7263122468937        1.80125316244456     
   17.1000000000000        51.7263588543852        1.80125478544624     
   17.2000000000000        51.7264054675818        1.80125640864658     
   17.3000000000000        51.7264520864848        1.80125803204564     
   17.4000000000000        51.7264987110952        1.80125965564344     
   17.5000000000000        51.7265453414142        1.80126127944003     
   17.6000000000000        51.7265919774429        1.80126290343545     
   17.7000000000000        51.7266386191826        1.80126452762974     
   17.8000000000000        51.7266852666342        1.80126615202294     
   17.9000000000000        51.7267319197990        1.80126777661509     
   18.0000000000000        51.7267785786781        1.80126940140622     
   18.1000000000000        51.7268252432726        1.80127102639638     
   18.2000000000000        51.7268719135837        1.80127265158561     
   18.3000000000000        51.7269185896125        1.80127427697394     
   18.4000000000000        51.7269652713601        1.80127590256142     
   18.5000000000000        51.7270119588278        1.80127752834809     
   18.6000000000000        51.7270586520166        1.80127915433398     
   18.7000000000000        51.7271053509277        1.80128078051914     
   18.8000000000000        51.7271520555622        1.80128240690361     
   18.9000000000000        51.7271987659213        1.80128403348742     
   19.0000000000000        51.7272454820061        1.80128566027061     
   19.1000000000000        51.7272922038178        1.80128728725323     
   19.2000000000000        51.7273389313574        1.80128891443531     
   19.3000000000000        51.7273856646262        1.80129054181690     
   19.4000000000000        51.7274324036252        1.80129216939803     
   19.5000000000000        51.7274791483557        1.80129379717875     
   19.6000000000000        51.7275258988187        1.80129542515909     
   19.7000000000000        51.7275726550154        1.80129705333909     
   19.8000000000000        51.7276194169470        1.80129868171880     
   19.9000000000000        51.7276661846145        1.80130031029825     
   20.0000000000000        51.7277129580192        1.80130193907748     
   20.1000000000000        51.7277597371622        1.80130356805653     
   20.2000000000000        51.7278065220446        1.80130519723545     
   20.3000000000000        51.7278533126675        1.80130682661427     
   20.4000000000000        51.7279001090322        1.80130845619303     
   20.5000000000000        51.7279469111397        1.80131008597177     
   20.6000000000000        51.7279937189912        1.80131171595054     
   20.7000000000000        51.7280405325878        1.80131334612936     
   20.8000000000000        51.7280873519307        1.80131497650829     
   20.9000000000000        51.7281341770210        1.80131660708736     
   21.0000000000000        51.7281810078600        1.80131823786661     
   21.1000000000000        51.7282278444486        1.80131986884608     
   21.2000000000000        51.7282746867881        1.80132150002581     
   21.3000000000000        51.7283215348795        1.80132313140584     
   21.4000000000000        51.7283683887242        1.80132476298622     
   21.5000000000000        51.7284152483231        1.80132639476697     
   21.6000000000000        51.7284621136775        1.80132802674814     
   21.7000000000000        51.7285089847884        1.80132965892977     
   21.8000000000000        51.7285558616571        1.80133129131191     
   21.9000000000000        51.7286027442846        1.80133292389458     
   22.0000000000000        51.7286496326722        1.80133455667783     
   22.1000000000000        51.7286965268209        1.80133618966171     
   22.2000000000000        51.7287434267319        1.80133782284624     
   22.3000000000000        51.7287903324065        1.80133945623147     
   22.4000000000000        51.7288372438456        1.80134108981744     
   22.5000000000000        51.7288841610504        1.80134272360419     
   22.6000000000000        51.7289310840222        1.80134435759176     
   22.7000000000000        51.7289780127620        1.80134599178020     
   22.8000000000000        51.7290249472710        1.80134762616952     
   22.9000000000000        51.7290718875503        1.80134926075979     
   23.0000000000000        51.7291188336011        1.80135089555104     
   23.1000000000000        51.7291657854245        1.80135253054330     
   23.2000000000000        51.7292127430218        1.80135416573663     
   23.3000000000000        51.7292597063939        1.80135580113105     
   23.4000000000000        51.7293066755422        1.80135743672661     
   23.5000000000000        51.7293536504676        1.80135907252336     
   23.6000000000000        51.7294006311714        1.80136070852132     
   23.7000000000000        51.7294476176548        1.80136234472054     
   23.8000000000000        51.7294946099188        1.80136398112105     
   23.9000000000000        51.7295416079646        1.80136561772291     
   24.0000000000000        51.7295886117933        1.80136725452614     
   24.1000000000000        51.7296356214062        1.80136889153080     
   24.2000000000000        51.7296826368044        1.80137052873691     
   24.3000000000000        51.7297296579890        1.80137216614452     
   24.4000000000000        51.7297766849611        1.80137380375367     
   24.5000000000000        51.7298237177219        1.80137544156440     
   24.6000000000000        51.7298707562726        1.80137707957675     
   24.7000000000000        51.7299178006143        1.80137871779076     
   24.8000000000000        51.7299648507481        1.80138035620646     
   24.9000000000000        51.7300119066752        1.80138199482391     
   25.0000000000000        51.7300589683968        1.80138363364313     
   25.1000000000000        51.7301060359141        1.80138527266417     
   25.2000000000000        51.7301531092280        1.80138691188707     
   25.3000000000000        51.7302001883399        1.80138855131187     
   25.4000000000000        51.7302472732508        1.80139019093861     
   25.5000000000000        51.7302943639619        1.80139183076733     
   25.6000000000000        51.7303414604744        1.80139347079807     
   25.7000000000000        51.7303885627894        1.80139511103087     
   25.8000000000000        51.7304356709080        1.80139675146576     
   25.9000000000000        51.7304827848315        1.80139839210280     
   26.0000000000000        51.7305299045609        1.80140003294202     
   26.1000000000000        51.7305770300975        1.80140167398345     
   26.2000000000000        51.7306241614422        1.80140331522715     
   26.3000000000000        51.7306712985965        1.80140495667314     
   26.4000000000000        51.7307184415612        1.80140659832148     
   26.5000000000000        51.7307655903377        1.80140824017219     
   26.6000000000000        51.7308127449271        1.80140988222533     
   26.7000000000000        51.7308599053305        1.80141152448093     
   26.8000000000000        51.7309070715490        1.80141316693902     
   26.9000000000000        51.7309542435839        1.80141480959966     
   27.0000000000000        51.7310014214363        1.80141645246288     
   27.1000000000000        51.7310486051073        1.80141809552871     
   27.2000000000000        51.7310957945981        1.80141973879721     
