 # applied field (T), theta (degree), phi (degree), abs
     0.00000     0.00000     0.00000    46.21010
     0.10000     0.57325     0.00000    46.21010
     0.20000     1.08917     0.00000    46.21010
     0.30000     1.66242     0.00000    46.21010
     0.40000     2.23567     0.00000    46.21010
     0.50000     2.75159     0.00000    46.21010
     0.60000     3.32484     0.00000    46.21010
     0.70000     3.89809     0.00000    46.21010
     0.80000     4.41401     0.00000    46.21010
     0.90000     4.98726     0.00000    46.21010
     1.00000     5.56051     0.00000    46.21010
     1.10000     6.07643     0.00000    46.21010
     1.20000     6.64968     0.00000    46.21010
     1.30000     7.22293     0.00000    46.21010
     1.40000     7.79618     0.00000    46.21010
     1.50000     8.36943     0.00000    46.21010
     1.60000     8.88535     0.00000    46.21010
     1.70000     9.45860     0.00000    46.21010
     1.80000    10.03185     0.00000    46.21010
     1.90000    10.60510     0.00000    46.21010
     2.00000    11.17834     0.00000    46.21010
     2.10000    11.75159     0.00000    46.21010
     2.20000    12.32484     0.00000    46.21010
     2.30000    12.89809     0.00000    46.21010
     2.40000    13.47134     0.00000    46.21010
     2.50000    14.04459     0.00000    46.21010
     2.60000    14.61783     0.00000    46.21010
     2.70000    15.24841     0.00000    46.21010
     2.80000    15.82166     0.00000    46.21010
     2.90000    16.39490     0.00000    46.21010
     3.00000    16.96815     0.00000    46.21010
     3.10000    17.59873     0.00000    46.21010
     3.20000    18.17197     0.00000    46.21010
     3.30000    18.80255     0.00000    46.21010
     3.40000    19.37580     0.00000    46.21010
     3.50000    20.00637     0.00000    46.21010
     3.60000    20.63694     0.00000    46.21010
     3.70000    21.26752     0.00000    46.21010
     3.80000    21.84076     0.00000    46.21010
     3.90000    22.47134     0.00000    46.21010
     4.00000    23.10191     0.00000    46.21010
     4.10000    23.73248     0.00000    46.21010
     4.20000    24.42038     0.00000    46.21010
     4.30000    25.05096     0.00000    46.21010
     4.40000    25.68153     0.00000    46.21010
     4.50000    26.36943     0.00000    46.21010
     4.60000    27.00000     0.00000    46.21010
     4.70000    27.68790     0.00000    46.21010
     4.80000    28.37580     0.00000    46.21010
     4.90000    29.06369     0.00000    46.21010
     5.00000    29.75159     0.00000    46.21010
     5.10000    30.43949     0.00000    46.21010
     5.20000    31.12739     0.00000    46.21010
     5.30000    31.87261     0.00000    46.21010
     5.40000    32.56051     0.00000    46.21010
     5.50000    33.30573     0.00000    46.21010
     5.60000    34.05096     0.00000    46.21010
     5.70000    34.79618     0.00000    46.21010
     5.80000    35.59873     0.00000    46.21010
     5.90000    36.34395     0.00000    46.21010
     6.00000    37.14650     0.00000    46.21010
     6.10000    37.94904     0.00000    46.21010
     6.20000    38.75159     0.00000    46.21010
     6.30000    39.55414     0.00000    46.21010
     6.40000    40.41401     0.00000    46.21010
     6.50000    41.27389     0.00000    46.21010
     6.60000    42.13376     0.00000    46.21010
     6.70000    43.05096     0.00000    46.21010
     6.80000    43.96815     0.00000    46.21010
     6.90000    44.88535     0.00000    46.21010
     7.00000    45.85987     0.00000    46.21010
     7.10000    46.83439     0.00000    46.21010
     7.20000    47.86624     0.00000    46.21010
     7.30000    48.89809     0.00000    46.21010
     7.40000    49.92994     0.00000    46.21010
     7.50000    51.07643     0.00000    46.21010
     7.60000    52.16561     0.00000    46.21010
     7.70000    53.36943     0.00000    46.21010
     7.80000    54.57325     0.00000    46.21010
     7.90000    55.89172     0.00000    46.21010
     8.00000    57.21019     0.00000    46.21010
     8.10000    58.58599     0.00000    46.21010
     8.20000    60.07643     0.00000    46.21010
     8.30000    61.62420     0.00000    46.21010
     8.40000    63.28662     0.00000    46.21010
     8.50000    65.06369     0.00000    46.21010
     8.60000    67.01274     0.00000    46.21010
     8.70000    69.19108     0.00000    46.21010
     8.80000    71.59873     0.00000    46.21010
     8.90000    74.40764     0.00000    46.21010
     9.00000    77.96178     0.00000    46.21010
     9.10000    83.12102     0.00000    46.21010
     9.20000    90.00000     0.00000    46.21010
     9.30000    90.00000     0.00000    46.21010
     9.40000    90.00000     0.00000    46.21010
     9.50000    90.00000     0.00000    46.21010
     9.60000    90.00000     0.00000    46.21010
     9.70000    90.00000     0.00000    46.21010
     9.80000    90.00000     0.00000    46.21010
     9.90000    90.00000     0.00000    46.21010
    10.00000    90.00000     0.00000    46.21010
    10.10000    90.00000     0.00000    46.21010
    10.20000    90.00000     0.00000    46.21010
    10.30000    90.00000     0.00000    46.21010
    10.40000    90.00000     0.00000    46.21010
    10.50000    90.00000     0.00000    46.21010
    10.60000    90.00000     0.00000    46.21010
    10.70000    90.00000     0.00000    46.21010
    10.80000    90.00000     0.00000    46.21010
    10.90000    90.00000     0.00000    46.21010
    11.00000    90.00000     0.00000    46.21010
    11.10000    90.00000     0.00000    46.21010
    11.20000    90.00000     0.00000    46.21010
    11.30000    90.00000     0.00000    46.21010
    11.40000    90.00000     0.00000    46.21010
    11.50000    90.00000     0.00000    46.21010
    11.60000    90.00000     0.00000    46.21010
    11.70000    90.00000     0.00000    46.21010
    11.80000    90.00000     0.00000    46.21010
    11.90000    90.00000     0.00000    46.21010
    12.00000    90.00000     0.00000    46.21010
    12.10000    90.00000     0.00000    46.21010
    12.20000    90.00000     0.00000    46.21010
    12.30000    90.00000     0.00000    46.21010
    12.40000    90.00000     0.00000    46.21010
    12.50000    90.00000     0.00000    46.21010
    12.60000    90.00000     0.00000    46.21010
    12.70000    90.00000     0.00000    46.21010
    12.80000    90.00000     0.00000    46.21010
    12.90000    90.00000     0.00000    46.21010
    13.00000    90.00000     0.00000    46.21010
    13.10000    90.00000     0.00000    46.21010
    13.20000    90.00000     0.00000    46.21010
    13.30000    90.00000     0.00000    46.21010
    13.40000    90.00000     0.00000    46.21010
    13.50000    90.00000     0.00000    46.21010
    13.60000    90.00000     0.00000    46.21010
    13.70000    90.00000     0.00000    46.21010
    13.80000    90.00000     0.00000    46.21010
    13.90000    90.00000     0.00000    46.21010
    14.00000    90.00000     0.00000    46.21010
    14.10000    90.00000     0.00000    46.21010
    14.20000    90.00000     0.00000    46.21010
    14.30000    90.00000     0.00000    46.21010
    14.40000    90.00000     0.00000    46.21010
    14.50000    90.00000     0.00000    46.21010
    14.60000    90.00000     0.00000    46.21010
    14.70000    90.00000     0.00000    46.21010
    14.80000    90.00000     0.00000    46.21010
    14.90000    90.00000     0.00000    46.21010
    15.00000    90.00000     0.00000    46.21010
    15.10000    90.00000     0.00000    46.21010
    15.20000    90.00000     0.00000    46.21010
    15.30000    90.00000     0.00000    46.21010
    15.40000    90.00000     0.00000    46.21010
    15.50000    90.00000     0.00000    46.21010
    15.60000    90.00000     0.00000    46.21010
    15.70000    90.00000     0.00000    46.21010
    15.80000    90.00000     0.00000    46.21010
    15.90000    90.00000     0.00000    46.21010
    16.00000    90.00000     0.00000    46.21010
    16.10000    90.00000     0.00000    46.21010
    16.20000    90.00000     0.00000    46.21010
    16.30000    90.00000     0.00000    46.21010
    16.40000    90.00000     0.00000    46.21010
    16.50000    90.00000     0.00000    46.21010
    16.60000    90.00000     0.00000    46.21010
    16.70000    90.00000     0.00000    46.21010
    16.80000    90.00000     0.00000    46.21010
    16.90000    90.00000     0.00000    46.21010
    17.00000    90.00000     0.00000    46.21010
    17.10000    90.00000     0.00000    46.21010
    17.20000    90.00000     0.00000    46.21010
    17.30000    90.00000     0.00000    46.21010
    17.40000    90.00000     0.00000    46.21010
    17.50000    90.00000     0.00000    46.21010
    17.60000    90.00000     0.00000    46.21010
    17.70000    90.00000     0.00000    46.21010
    17.80000    90.00000     0.00000    46.21010
    17.90000    90.00000     0.00000    46.21010
    18.00000    90.00000     0.00000    46.21010
    18.10000    90.00000     0.00000    46.21010
    18.20000    90.00000     0.00000    46.21010
    18.30000    90.00000     0.00000    46.21010
    18.40000    90.00000     0.00000    46.21010
    18.50000    90.00000     0.00000    46.21010
    18.60000    90.00000     0.00000    46.21010
    18.70000    90.00000     0.00000    46.21010
    18.80000    90.00000     0.00000    46.21010
    18.90000    90.00000     0.00000    46.21010
    19.00000    90.00000     0.00000    46.21010
    19.10000    90.00000     0.00000    46.21010
    19.20000    90.00000     0.00000    46.21010
    19.30000    90.00000     0.00000    46.21010
    19.40000    90.00000     0.00000    46.21010
    19.50000    90.00000     0.00000    46.21010
    19.60000    90.00000     0.00000    46.21010
    19.70000    90.00000     0.00000    46.21010
    19.80000    90.00000     0.00000    46.21010
    19.90000    90.00000     0.00000    46.21010
    20.00000    90.00000     0.00000    46.21010
    20.10000    90.00000     0.00000    46.21010
    20.20000    90.00000     0.00000    46.21010
    20.30000    90.00000     0.00000    46.21010
    20.40000    90.00000     0.00000    46.21010
    20.50000    90.00000     0.00000    46.21010
    20.60000    90.00000     0.00000    46.21010
    20.70000    90.00000     0.00000    46.21010
    20.80000    90.00000     0.00000    46.21010
    20.90000    90.00000     0.00000    46.21010
    21.00000    90.00000     0.00000    46.21010
    21.10000    90.00000     0.00000    46.21010
    21.20000    90.00000     0.00000    46.21010
    21.30000    90.00000     0.00000    46.21010
    21.40000    90.00000     0.00000    46.21010
    21.50000    90.00000     0.00000    46.21010
    21.60000    90.00000     0.00000    46.21010
    21.70000    90.00000     0.00000    46.21010
    21.80000    90.00000     0.00000    46.21010
    21.90000    90.00000     0.00000    46.21010
    22.00000    90.00000     0.00000    46.21010
    22.10000    90.00000     0.00000    46.21010
    22.20000    90.00000     0.00000    46.21010
    22.30000    90.00000     0.00000    46.21010
    22.40000    90.00000     0.00000    46.21010
    22.50000    90.00000     0.00000    46.21010
    22.60000    90.00000     0.00000    46.21010
    22.70000    90.00000     0.00000    46.21010
    22.80000    90.00000     0.00000    46.21010
    22.90000    90.00000     0.00000    46.21010
    23.00000    90.00000     0.00000    46.21010
    23.10000    90.00000     0.00000    46.21010
    23.20000    90.00000     0.00000    46.21010
    23.30000    90.00000     0.00000    46.21010
    23.40000    90.00000     0.00000    46.21010
    23.50000    90.00000     0.00000    46.21010
    23.60000    90.00000     0.00000    46.21010
    23.70000    90.00000     0.00000    46.21010
    23.80000    90.00000     0.00000    46.21010
    23.90000    90.00000     0.00000    46.21010
    24.00000    90.00000     0.00000    46.21010
    24.10000    90.00000     0.00000    46.21010
    24.20000    90.00000     0.00000    46.21010
    24.30000    90.00000     0.00000    46.21010
    24.40000    90.00000     0.00000    46.21010
    24.50000    90.00000     0.00000    46.21010
    24.60000    90.00000     0.00000    46.21010
    24.70000    90.00000     0.00000    46.21010
    24.80000    90.00000     0.00000    46.21010
    24.90000    90.00000     0.00000    46.21010
    25.00000    90.00000     0.00000    46.21010
    25.10000    90.00000     0.00000    46.21010
    25.20000    90.00000     0.00000    46.21010
    25.30000    90.00000     0.00000    46.21010
    25.40000    90.00000     0.00000    46.21010
    25.50000    90.00000     0.00000    46.21010
    25.60000    90.00000     0.00000    46.21010
    25.70000    90.00000     0.00000    46.21010
    25.80000    90.00000     0.00000    46.21010
    25.90000    90.00000     0.00000    46.21010
    26.00000    90.00000     0.00000    46.21010
    26.10000    90.00000     0.00000    46.21010
    26.20000    90.00000     0.00000    46.21010
    26.30000    90.00000     0.00000    46.21010
    26.40000    90.00000     0.00000    46.21010
    26.50000    90.00000     0.00000    46.21010
    26.60000    90.00000     0.00000    46.21010
    26.70000    90.00000     0.00000    46.21010
    26.80000    90.00000     0.00000    46.21010
    26.90000    90.00000     0.00000    46.21010
    27.00000    90.00000     0.00000    46.21010
    27.10000    90.00000     0.00000    46.21010
    27.20000    90.00000     0.00000    46.21010
    27.30000    90.00000     0.00000    46.21010
    27.40000    90.00000     0.00000    46.21010
    27.50000    90.00000     0.00000    46.21010
    27.60000    90.00000     0.00000    46.21010
    27.70000    90.00000     0.00000    46.21010
    27.80000    90.00000     0.00000    46.21010
    27.90000    90.00000     0.00000    46.21010
    28.00000    90.00000     0.00000    46.21010
    28.10000    90.00000     0.00000    46.21010
    28.20000    90.00000     0.00000    46.21010
    28.30000    90.00000     0.00000    46.21010
    28.40000    90.00000     0.00000    46.21010
    28.50000    90.00000     0.00000    46.21010
    28.60000    90.00000     0.00000    46.21010
    28.70000    90.00000     0.00000    46.21010
    28.80000    90.00000     0.00000    46.21010
    28.90000    90.00000     0.00000    46.21010
    29.00000    90.00000     0.00000    46.21010
    29.10000    90.00000     0.00000    46.21010
    29.20000    90.00000     0.00000    46.21010
    29.30000    90.00000     0.00000    46.21010
    29.40000    90.00000     0.00000    46.21010
    29.50000    90.00000     0.00000    46.21010
    29.60000    90.00000     0.00000    46.21010
    29.70000    90.00000     0.00000    46.21010
    29.80000    90.00000     0.00000    46.21010
    29.90000    90.00000     0.00000    46.21010
    30.00000    90.00000     0.00000    46.21010
    30.10000    90.00000     0.00000    46.21010
    30.20000    90.00000     0.00000    46.21010
    30.30000    90.00000     0.00000    46.21010
    30.40000    90.00000     0.00000    46.21010
    30.50000    90.00000     0.00000    46.21010
    30.60000    90.00000     0.00000    46.21010
    30.70000    90.00000     0.00000    46.21010
    30.80000    90.00000     0.00000    46.21010
    30.90000    90.00000     0.00000    46.21010
    31.00000    90.00000     0.00000    46.21010
    31.10000    90.00000     0.00000    46.21010
    31.20000    90.00000     0.00000    46.21010
    31.30000    90.00000     0.00000    46.21010
    31.40000    90.00000     0.00000    46.21010
    31.50000    90.00000     0.00000    46.21010
    31.60000    90.00000     0.00000    46.21010
    31.70000    90.00000     0.00000    46.21010
    31.80000    90.00000     0.00000    46.21010
    31.90000    90.00000     0.00000    46.21010
    32.00000    90.00000     0.00000    46.21010
    32.10000    90.00000     0.00000    46.21010
    32.20000    90.00000     0.00000    46.21010
    32.30000    90.00000     0.00000    46.21010
    32.40000    90.00000     0.00000    46.21010
    32.50000    90.00000     0.00000    46.21010
    32.60000    90.00000     0.00000    46.21010
    32.70000    90.00000     0.00000    46.21010
    32.80000    90.00000     0.00000    46.21010
    32.90000    90.00000     0.00000    46.21010
    33.00000    90.00000     0.00000    46.21010
    33.10000    90.00000     0.00000    46.21010
    33.20000    90.00000     0.00000    46.21010
    33.30000    90.00000     0.00000    46.21010
    33.40000    90.00000     0.00000    46.21010
    33.50000    90.00000     0.00000    46.21010
    33.60000    90.00000     0.00000    46.21010
    33.70000    90.00000     0.00000    46.21010
    33.80000    90.00000     0.00000    46.21010
    33.90000    90.00000     0.00000    46.21010
    34.00000    90.00000     0.00000    46.21010
    34.10000    90.00000     0.00000    46.21010
    34.20000    90.00000     0.00000    46.21010
    34.30000    90.00000     0.00000    46.21010
    34.40000    90.00000     0.00000    46.21010
    34.50000    90.00000     0.00000    46.21010
    34.60000    90.00000     0.00000    46.21010
    34.70000    90.00000     0.00000    46.21010
    34.80000    90.00000     0.00000    46.21010
    34.90000    90.00000     0.00000    46.21010
    35.00000    90.00000     0.00000    46.21010
    35.10000    90.00000     0.00000    46.21010
    35.20000    90.00000     0.00000    46.21010
    35.30000    90.00000     0.00000    46.21010
    35.40000    90.00000     0.00000    46.21010
    35.50000    90.00000     0.00000    46.21010
    35.60000    90.00000     0.00000    46.21010
    35.70000    90.00000     0.00000    46.21010
    35.80000    90.00000     0.00000    46.21010
    35.90000    90.00000     0.00000    46.21010
    36.00000    90.00000     0.00000    46.21010
    36.10000    90.00000     0.00000    46.21010
    36.20000    90.00000     0.00000    46.21010
    36.30000    90.00000     0.00000    46.21010
    36.40000    90.00000     0.00000    46.21010
    36.50000    90.00000     0.00000    46.21010
    36.60000    90.00000     0.00000    46.21010
    36.70000    90.00000     0.00000    46.21010
    36.80000    90.00000     0.00000    46.21010
    36.90000    90.00000     0.00000    46.21010
    37.00000    90.00000     0.00000    46.21010
    37.10000    90.00000     0.00000    46.21010
    37.20000    90.00000     0.00000    46.21010
    37.30000    90.00000     0.00000    46.21010
    37.40000    90.00000     0.00000    46.21010
    37.50000    90.00000     0.00000    46.21010
    37.60000    90.00000     0.00000    46.21010
    37.70000    90.00000     0.00000    46.21010
    37.80000    90.00000     0.00000    46.21010
    37.90000    90.00000     0.00000    46.21010
    38.00000    90.00000     0.00000    46.21010
    38.10000    90.00000     0.00000    46.21010
    38.20000    90.00000     0.00000    46.21010
    38.30000    90.00000     0.00000    46.21010
    38.40000    90.00000     0.00000    46.21010
    38.50000    90.00000     0.00000    46.21010
    38.60000    90.00000     0.00000    46.21010
    38.70000    90.00000     0.00000    46.21010
    38.80000    90.00000     0.00000    46.21010
    38.90000    90.00000     0.00000    46.21010
    39.00000    90.00000     0.00000    46.21010
    39.10000    90.00000     0.00000    46.21010
    39.20000    90.00000     0.00000    46.21010
    39.30000    90.00000     0.00000    46.21010
    39.40000    90.00000     0.00000    46.21010
    39.50000    90.00000     0.00000    46.21010
    39.60000    90.00000     0.00000    46.21010
    39.70000    90.00000     0.00000    46.21010
    39.80000    90.00000     0.00000    46.21010
    39.90000    90.00000     0.00000    46.21010
    40.00000    90.00000     0.00000    46.21010
