 # applied field (T), magnetization (2 f.u.), magnetization (T)
  0.000000000000000E+000  1.328649860826614E-015  4.571809907075448E-017
  0.100000000000000       0.313843068556965       1.079916456848169E-002
  0.200000000000000       0.627675643076382       2.159796804299695E-002
  0.300000000000000       0.993693965086598       3.419245391978288E-002
  0.400000000000000        1.30746781284437       4.498923663925485E-002
  0.500000000000000        1.62119794033151       5.578451496865149E-002
  0.600000000000000        1.93487385569122       6.657792788904490E-002
  0.700000000000000        2.30065421432486       7.916422557905091E-002
  0.800000000000000        2.61417670266799       8.995235916156068E-002
  0.900000000000000        2.92761176510070       0.100737484467359     
   1.00000000000000        3.24094891541886       0.111519240672023     
   1.10000000000000        3.55417766927697       0.122297267015085     
   1.20000000000000        3.91936800061616       0.134863262195681     
   1.30000000000000        4.23232597220679       0.145631971072270     
   1.40000000000000        4.54514236398602       0.156395808266685     
   1.50000000000000        4.90980979261975       0.168943810657459     
   1.60000000000000        5.22228354062827       0.179695857671241     
   1.70000000000000        5.53458255195077       0.190441892093326     
   1.80000000000000        5.84669636153343       0.201181553827060     
   1.90000000000000        6.21048918893327       0.213699461678229     
   2.00000000000000        6.52216589705654       0.224424082995060     
   2.10000000000000        6.83362428976883       0.235141192200626     
   2.20000000000000        7.19661080722097       0.247631355377176     
   2.30000000000000        7.50756040178785       0.258330957122947     
   2.40000000000000        7.86992486559717       0.270799715781341     
   2.50000000000000        8.18031665905886       0.281480123902862     
   2.60000000000000        8.54200193825663       0.293925512198398     
   2.70000000000000        8.85178697241409       0.304585042071405     
   2.80000000000000        9.16127542826162       0.315234366850538     
   2.90000000000000        9.52186535428712       0.327642064655657     
   3.00000000000000        9.83067557963392       0.338268051902352     
   3.10000000000000        10.1904459241845       0.350647548367021     
   3.20000000000000        10.5497514196874       0.363011049635781     
   3.30000000000000        10.8574229134956       0.373597853766719     
   3.40000000000000        11.2158212702208       0.385930140897177     
   3.50000000000000        11.5737076777037       0.398244812140361     
   3.60000000000000        11.8801250539036       0.408788462785378     
   3.70000000000000        12.2370169171230       0.421068912316348     
   3.80000000000000        12.5933498144380       0.433330128142977     
   3.90000000000000        12.9491073115728       0.445571544771020     
   4.00000000000000        13.2536489945413       0.456050653860355     
   4.10000000000000        13.6082942023125       0.468253797233104     
   4.20000000000000        13.9623171093454       0.480435527585281     
   4.30000000000000        14.3157013224056       0.492595280834849     
   4.40000000000000        14.6684304589287       0.504732493266930     
   4.50000000000000        15.0204881469920       0.516846601532807     
   4.60000000000000        15.3718580252668       0.528937042648311     
   4.70000000000000        15.7225237429555       0.541003253991632     
   4.80000000000000        16.1223253913899       0.554760205247704     
   4.90000000000000        16.4714273424281       0.566772608254638     
   5.00000000000000        16.8197738168339       0.578759015732923     
   5.10000000000000        17.2168626223413       0.592422619580200     
   5.20000000000000        17.5635354898207       0.604351439179596     
   5.30000000000000        17.9586692366932       0.617947770552015     
   5.40000000000000        18.3035937306993       0.629816429597439     
   5.50000000000000        18.6966870483385       0.643342550940421     
   5.60000000000000        19.0886573709361       0.656830030651716     
   5.70000000000000        19.4794804676279       0.670278034960826     
   5.80000000000000        19.8205553245835       0.682014230147074     
   5.90000000000000        20.2575881365998       0.697052284931876     
   6.00000000000000        20.6448243227576       0.710376865654390     
   6.10000000000000        21.0308165099979       0.723658641069480     
   6.20000000000000        21.4155405407735       0.736896779929447     
   6.30000000000000        21.8467455852572       0.751734304490847     
   6.40000000000000        22.2762812581225       0.766514386907942     
   6.50000000000000        22.6567176099898       0.779604989133245     
   6.60000000000000        23.0830061688024       0.794273340170740     
   6.70000000000000        23.5075262842234       0.808880840059591     
   6.80000000000000        23.9770443246221       0.825036693395622     
   6.90000000000000        24.3977188863579       0.839511869931614     
   7.00000000000000        24.8628799789986       0.855517803130580     
   7.10000000000000        25.3256801154369       0.871442497146262     
   7.20000000000000        25.7860724612062       0.887284340430848     
   7.30000000000000        26.2896190028758       0.904611095475599     
   7.40000000000000        26.7448030231339       0.920273723190501     
   7.50000000000000        27.2875552192610       0.938949522891387     
   7.60000000000000        27.7818206473071       0.955956920003972     
   7.70000000000000        28.3173048273058       0.974382631332293     
   7.80000000000000        28.8929603934020       0.994190617602689     
   7.90000000000000        29.4639269594489        1.01383725800227     
   8.00000000000000        30.0734186409051        1.03480952608973     
   8.10000000000000        30.6772280587459        1.05558627066224     
   8.20000000000000        31.3601131721786        1.07908396572122     
   8.30000000000000        32.0771301823442        1.10375612026898     
   8.40000000000000        32.8264862688278        1.12954104435712     
   8.50000000000000        33.6875622032252        1.15917018596688     
   8.60000000000000        52.7379909989444        1.81468479271300     
   8.70000000000000        52.7380344536469        1.81468628796502     
   8.80000000000000        52.7380779136008        1.81468778339774     
   8.90000000000000        52.7381213788069        1.81468927901119     
   9.00000000000000        52.7381648492664        1.81469077480540     
   9.10000000000000        52.7382083249801        1.81469227078041     
   9.20000000000000        52.7382518059490        1.81469376693625     
   9.30000000000000        52.7382952921741        1.81469526327295     
   9.40000000000000        52.7383387836563        1.81469675979054     
   9.50000000000000        52.7383822803966        1.81469825648906     
   9.60000000000000        52.7384257823961        1.81469975336855     
   9.70000000000000        52.7384692896555        1.81470125042903     
   9.80000000000000        52.7385128021760        1.81470274767054     
   9.90000000000000        52.7385563199586        1.81470424509311     
   10.0000000000000        52.7385998430040        1.81470574269678     
   10.1000000000000        52.7386433713134        1.81470724048158     
   10.2000000000000        52.7386869048877        1.81470873844754     
   10.3000000000000        52.7387304437279        1.81471023659469     
   10.4000000000000        52.7387739878349        1.81471173492307     
   10.5000000000000        52.7388175372098        1.81471323343272     
   10.6000000000000        52.7388610918534        1.81471473212366     
   10.7000000000000        52.7389046517668        1.81471623099593     
   10.8000000000000        52.7389482169509        1.81471773004957     
   10.9000000000000        52.7389917874066        1.81471922928460     
   11.0000000000000        52.7390353631351        1.81472072870106     
   11.1000000000000        52.7390789441372        1.81472222829898     
   11.2000000000000        52.7391225304139        1.81472372807840     
   11.3000000000000        52.7391661219662        1.81472522803935     
   11.4000000000000        52.7392097187950        1.81472672818186     
   11.5000000000000        52.7392533209013        1.81472822850597     
   11.6000000000000        52.7392969282862        1.81472972901171     
   11.7000000000000        52.7393405409505        1.81473122969911     
   11.8000000000000        52.7393841588952        1.81473273056821     
   11.9000000000000        52.7394277821214        1.81473423161904     
   12.0000000000000        52.7394714106299        1.81473573285163     
   12.1000000000000        52.7395150444218        1.81473723426602     
   12.2000000000000        52.7395586834980        1.81473873586224     
   12.3000000000000        52.7396023278595        1.81474023764032     
   12.4000000000000        52.7396459775073        1.81474173960031     
   12.5000000000000        52.7396896324423        1.81474324174222     
   12.6000000000000        52.7397332926655        1.81474474406610     
   12.7000000000000        52.7397769581780        1.81474624657197     
   12.8000000000000        52.7398206289806        1.81474774925988     
   12.9000000000000        52.7398643050743        1.81474925212985     
   13.0000000000000        52.7399079864601        1.81475075518193     
   13.1000000000000        52.7399516731391        1.81475225841613     
   13.2000000000000        52.7399953651120        1.81475376183250     
   13.3000000000000        52.7400390623801        1.81475526543107     
   13.4000000000000        52.7400827649441        1.81475676921187     
   13.5000000000000        52.7401264728051        1.81475827317493     
   13.6000000000000        52.7401701859640        1.81475977732030     
   13.7000000000000        52.7402139044219        1.81476128164800     
   13.8000000000000        52.7402576281797        1.81476278615807     
   13.9000000000000        52.7403013572384        1.81476429085053     
   14.0000000000000        52.7403450915989        1.81476579572544     
   14.1000000000000        52.7403888312623        1.81476730078280     
   14.2000000000000        52.7404325762295        1.81476880602267     
   14.3000000000000        52.7404763265014        1.81477031144508     
   14.4000000000000        52.7405200820791        1.81477181705005     
   14.5000000000000        52.7405638429636        1.81477332283762     
   14.6000000000000        52.7406076091557        1.81477482880783     
   14.7000000000000        52.7406513806565        1.81477633496071     
   14.8000000000000        52.7406951574670        1.81477784129629     
   14.9000000000000        52.7407389395881        1.81477934781461     
   15.0000000000000        52.7407827270209        1.81478085451569     
   15.1000000000000        52.7408265197662        1.81478236139958     
   15.2000000000000        52.7408703178251        1.81478386846631     
   15.3000000000000        52.7409141211986        1.81478537571590     
   15.4000000000000        52.7409579298875        1.81478688314840     
   15.5000000000000        52.7410017438930        1.81478839076384     
   15.6000000000000        52.7410455632159        1.81478989856225     
   15.7000000000000        52.7410893878573        1.81479140654367     
   15.8000000000000        52.7411332178181        1.81479291470812     
   15.9000000000000        52.7411770530993        1.81479442305565     
   16.0000000000000        52.7412208937020        1.81479593158628     
   16.1000000000000        52.7412647396269        1.81479744030005     
   16.2000000000000        52.7413085908753        1.81479894919699     
   16.3000000000000        52.7413524474479        1.81480045827714     
   16.4000000000000        52.7413963093458        1.81480196754054     
   16.5000000000000        52.7414401765701        1.81480347698720     
   16.6000000000000        52.7414840491215        1.81480498661717     
   16.7000000000000        52.7415279270012        1.81480649643049     
   16.8000000000000        52.7415718102102        1.81480800642718     
   16.9000000000000        52.7416156987493        1.81480951660728     
   17.0000000000000        52.7416595926196        1.81481102697082     
   17.1000000000000        52.7417034918220        1.81481253751784     
   17.2000000000000        52.7417473963576        1.81481404824837     
   17.3000000000000        52.7417913062273        1.81481555916245     
   17.4000000000000        52.7418352214321        1.81481707026010     
   17.5000000000000        52.7418791419730        1.81481858154136     
   17.6000000000000        52.7419230678509        1.81482009300626     
   17.7000000000000        52.7419669990668        1.81482160465485     
   17.8000000000000        52.7420109356218        1.81482311648715     
   17.9000000000000        52.7420548775167        1.81482462850319     
   18.0000000000000        52.7420988247527        1.81482614070302     
   18.1000000000000        52.7421427773305        1.81482765308665     
   18.2000000000000        52.7421867352514        1.81482916565414     
   18.3000000000000        52.7422306985161        1.81483067840551     
   18.4000000000000        52.7422746671257        1.81483219134079     
   18.5000000000000        52.7423186410813        1.81483370446002     
   18.6000000000000        52.7423626203837        1.81483521776323     
   18.7000000000000        52.7424066050339        1.81483673125046     
   18.8000000000000        52.7424505950330        1.81483824492174     
   18.9000000000000        52.7424945903818        1.81483975877711     
   19.0000000000000        52.7425385910815        1.81484127281659     
   19.1000000000000        52.7425825971329        1.81484278704022     
   19.2000000000000        52.7426266085371        1.81484430144804     
   19.3000000000000        52.7426706252951        1.81484581604008     
   19.4000000000000        52.7427146474077        1.81484733081637     
   19.5000000000000        52.7427586748761        1.81484884577695     
   19.6000000000000        52.7428027077012        1.81485036092184     
   19.7000000000000        52.7428467458839        1.81485187625110     
   19.8000000000000        52.7428907894253        1.81485339176474     
   19.9000000000000        52.7429348383263        1.81485490746280     
   20.0000000000000        52.7429788925880        1.81485642334532     
   20.1000000000000        52.7430229522112        1.81485793941233     
   20.2000000000000        52.7430670171971        1.81485945566386     
   20.3000000000000        52.7431110875465        1.81486097209996     
   20.4000000000000        52.7431551632605        1.81486248872064     
   20.5000000000000        52.7431992443400        1.81486400552595     
   20.6000000000000        52.7432433307861        1.81486552251591     
   20.7000000000000        52.7432874225996        1.81486703969057     
   20.8000000000000        52.7433315197817        1.81486855704996     
   20.9000000000000        52.7433756223333        1.81487007459411     
   21.0000000000000        52.7434197302553        1.81487159232305     
   21.1000000000000        52.7434638435488        1.81487311023682     
   21.2000000000000        52.7435079622147        1.81487462833546     
   21.3000000000000        52.7435520862541        1.81487614661899     
   21.4000000000000        52.7435962156678        1.81487766508745     
   21.5000000000000        52.7436403504570        1.81487918374088     
   21.6000000000000        52.7436844906226        1.81488070257930     
   21.7000000000000        52.7437286361655        1.81488222160276     
   21.8000000000000        52.7437727870868        1.81488374081128     
   21.9000000000000        52.7438169433874        1.81488526020491     
   22.0000000000000        52.7438611050683        1.81488677978366     
   22.1000000000000        52.7439052721306        1.81488829954759     
   22.2000000000000        52.7439494445752        1.81488981949672     
   22.3000000000000        52.7439936224031        1.81489133963108     
   22.4000000000000        52.7440378056152        1.81489285995072     
   22.5000000000000        52.7440819942126        1.81489438045566     
   22.6000000000000        52.7441261881963        1.81489590114593     
   22.7000000000000        52.7441703875672        1.81489742202158     
   22.8000000000000        52.7442145923264        1.81489894308263     
   22.9000000000000        52.7442588024748        1.81490046432913     
   23.0000000000000        52.7443030180133        1.81490198576110     
   23.1000000000000        52.7443472389431        1.81490350737857     
   23.2000000000000        52.7443914652651        1.81490502918159     
   23.3000000000000        52.7444356969802        1.81490655117019     
   23.4000000000000        52.7444799340895        1.81490807334439     
   23.5000000000000        52.7445241765939        1.81490959570424     
   23.6000000000000        52.7445684244945        1.81491111824977     
   23.7000000000000        52.7446126777923        1.81491264098101     
   23.8000000000000        52.7446569364881        1.81491416389799     
   23.9000000000000        52.7447012005831        1.81491568700076     
   24.0000000000000        52.7447454700781        1.81491721028934     
   24.1000000000000        52.7447897449742        1.81491873376377     
   24.2000000000000        52.7448340252725        1.81492025742408     
   24.3000000000000        52.7448783109737        1.81492178127031     
   24.4000000000000        52.7449226020791        1.81492330530249     
   24.5000000000000        52.7449668985895        1.81492482952065     
   24.6000000000000        52.7450112005059        1.81492635392483     
   24.7000000000000        52.7450555078294        1.81492787851507     
   24.8000000000000        52.7450998205609        1.81492940329139     
   24.9000000000000        52.7451441387014        1.81493092825384     
   25.0000000000000        52.7451884622519        1.81493245340243     
   25.1000000000000        52.7452327912135        1.81493397873722     
   25.2000000000000        52.7452771255870        1.81493550425824     
   25.3000000000000        52.7453214653734        1.81493702996550     
   25.4000000000000        52.7453658105739        1.81493855585907     
   25.5000000000000        52.7454101611893        1.81494008193895     
   25.6000000000000        52.7454545172207        1.81494160820520     
   25.7000000000000        52.7454988786691        1.81494313465784     
   25.8000000000000        52.7455432455353        1.81494466129691     
   25.9000000000000        52.7455876178205        1.81494618812244     
   26.0000000000000        52.7456319955257        1.81494771513447     
   26.1000000000000        52.7456763786518        1.81494924233303     
   26.2000000000000        52.7457207671997        1.81495076971816     
   26.3000000000000        52.7457651611706        1.81495229728988     
   26.4000000000000        52.7458095605654        1.81495382504824     
   26.5000000000000        52.7458539653851        1.81495535299327     
   26.6000000000000        52.7458983756307        1.81495688112499     
   26.7000000000000        52.7459427913031        1.81495840944346     
   26.8000000000000        52.7459872124035        1.81495993794869     
   26.9000000000000        52.7460316389326        1.81496146664073     
   27.0000000000000        52.7460760708917        1.81496299551961     
   27.1000000000000        52.7461205082817        1.81496452458536     
   27.2000000000000        52.7461649511034        1.81496605383801     
